#ParticleID	Turn	x[m]	xp	y[m]	yp	z[m]	dE[GeV]# s	beta_x	beta_y	alpha_x	alpha_y	D_x	D_y	D_px	D_py	orbit_x	orbit_px	orbit_y	orbit_py
0.300000	11.823439	24.979527	-0.012189	-0.027619	2.618109	0.000000	0.000014	0.000000	-0.000000	0.000001	0.000000	0.000000
0.601250	11.838460	24.999803	-0.037672	-0.039688	2.618113	0.000000	0.000014	0.000000	-0.000000	0.000001	0.000000	0.000000
0.898573	11.868339	25.026945	-0.033718	-0.112973	2.618117	0.000000	-0.006407	0.000000	0.000000	0.000001	0.000000	0.000000
1.339533	12.050324	24.848983	-0.380549	0.515016	2.631585	0.000000	0.067551	0.000000	0.000000	0.000001	0.000000	0.000000
1.780493	12.544667	24.125442	-0.744765	1.119571	2.677804	0.000000	0.142278	0.000000	0.000001	0.000001	0.000000	0.000000
2.221453	13.373954	22.889243	-1.143008	1.673187	2.757300	0.000000	0.218625	0.000000	0.000001	0.000001	0.000000	0.000000
2.662413	14.576072	21.196632	-1.593472	2.150675	2.870978	0.000000	0.297462	0.000000	0.000001	0.000001	0.000000	0.000000
3.108373	16.226721	19.099797	-2.121032	2.531439	3.021995	0.000000	0.380177	0.000000	0.000001	0.000001	0.000000	0.000000
3.657433	18.343374	16.744803	-1.711196	1.783016	3.205463	0.000000	0.287138	0.000000	0.000002	0.000001	0.000000	0.000000
4.206493	19.940537	15.137524	-1.180489	1.161593	3.336371	0.000000	0.189007	0.000000	0.000002	0.000001	0.000000	0.000000
4.755553	20.905394	14.163476	-0.566398	0.622907	3.412399	0.000000	0.087524	0.000000	0.000002	0.000000	0.000000	0.000000
5.304613	21.169793	13.753280	0.087701	0.128590	3.432197	0.000000	-0.015513	0.000000	0.000003	0.000000	0.000000	0.000000
5.603185	21.154667	13.661693	0.018271	0.142227	3.430243	0.000000	-0.006545	0.000000	0.000003	0.000000	0.000000	0.000000
5.936519	21.147741	13.575172	0.002508	0.117334	3.428061	0.000000	-0.006545	0.000000	0.000003	0.000000	0.000000	0.000000
6.269852	21.151323	13.505247	-0.013254	0.092442	3.425879	0.000000	-0.006545	0.000000	0.000003	0.000000	0.000000	0.000000
6.604435	21.165485	13.451748	-0.029075	0.067456	3.423689	0.000000	-0.006545	0.000000	0.000003	0.000000	0.000000	0.000000
6.901758	21.186955	13.418237	-0.098491	0.080311	3.421743	0.000000	0.002395	0.000000	0.000003	0.000000	0.000000	0.000000
7.450818	20.933979	13.590686	0.556507	-0.396244	3.394856	0.000000	-0.100187	0.000000	0.000004	0.000000	0.000000	0.000000
7.999878	19.979165	14.298784	1.172196	-0.901023	3.312051	0.000000	-0.200993	0.000000	0.000004	0.000000	0.000000	0.000000
8.548938	18.389957	15.592967	1.705087	-1.469979	3.174797	0.000000	-0.298233	0.000000	0.000004	0.000000	0.000000	0.000000
9.097998	16.278608	17.565417	2.117539	-2.143639	2.985527	0.000000	-0.390184	0.000000	0.000004	-0.000000	0.000000	0.000000
9.543958	14.631303	19.323006	1.589434	-1.780841	2.829827	0.000000	-0.308476	0.000000	0.000004	0.000000	0.000000	0.000000
9.984918	13.433054	20.703653	1.138239	-1.338246	2.711049	0.000000	-0.230765	0.000000	0.000004	0.000000	0.000000	0.000000
10.425878	12.608374	21.665523	0.739048	-0.834763	2.625925	0.000000	-0.155683	0.000000	0.000004	0.000000	0.000000	0.000000
10.866838	12.119586	22.164853	0.373621	-0.293298	2.573488	0.000000	-0.082374	0.000000	0.000004	0.000000	0.000000	0.000000
11.309048	11.944223	22.178405	0.054449	0.207065	2.553120	0.000000	-0.016264	0.000000	0.000004	0.000000	0.000000	0.000000
11.606371	11.919268	22.059432	0.029483	0.193084	2.548284	0.000000	-0.016264	0.000000	0.000004	0.000000	0.000000	0.000000
12.086371	11.910311	21.884905	-0.010823	0.170514	2.540477	0.000000	-0.016264	0.000000	0.000004	0.000000	0.000000	0.000000
12.566371	11.940048	21.732045	-0.051129	0.147943	2.532671	0.000000	-0.016264	0.000000	0.000005	0.000000	0.000000	0.000000
13.046371	12.008479	21.600854	-0.091435	0.125373	2.524864	0.000000	-0.016264	0.000000	0.000005	0.000000	0.000000	0.000000
13.526371	12.115604	21.491330	-0.131741	0.102802	2.517057	0.000000	-0.016264	0.000000	0.000005	0.000000	0.000000	0.000000
14.007621	12.261852	21.403273	-0.172152	0.080173	2.509230	0.000000	-0.016264	0.000000	0.000005	0.000000	0.000000	0.000000
14.304943	12.371645	21.359756	-0.166781	0.013814	2.504394	0.000000	-0.022405	0.000000	0.000005	0.000000	0.000000	0.000000
14.745903	12.677372	21.113773	-0.529171	0.541898	2.510147	0.000000	0.048521	0.000000	0.000006	0.000001	0.000000	0.000000
15.186863	13.312110	20.411196	-0.915737	1.045327	2.547267	0.000000	0.120000	0.000000	0.000006	0.000001	0.000000	0.000000
15.627823	14.304860	19.283994	-1.344140	1.501193	2.616177	0.000000	0.192846	0.000000	0.000006	0.000001	0.000000	0.000000
16.068783	15.700976	17.783451	-1.833954	1.888757	2.717662	0.000000	0.267888	0.000000	0.000007	0.000001	0.000000	0.000000
16.514743	17.587898	15.956339	-2.412313	2.191131	2.854574	0.000000	0.346443	0.000000	0.000007	0.000001	0.000000	0.000000
17.063803	20.011238	13.916120	-1.975176	1.546642	3.021059	0.000000	0.259105	0.000000	0.000008	0.000001	0.000000	0.000000
17.612863	21.874633	12.519342	-1.398523	1.012318	3.138256	0.000000	0.167170	0.000000	0.000008	0.000001	0.000000	0.000000
18.161923	23.046459	11.666515	-0.723085	0.550098	3.204087	0.000000	0.072271	0.000000	0.000009	0.000000	0.000000	0.000000
18.710983	23.443947	11.296896	0.003428	0.127061	3.217383	0.000000	-0.023910	0.000000	0.000009	0.000000	0.000000	0.000000
19.009556	23.482290	11.211482	-0.070600	0.129498	3.212753	0.000000	-0.015504	0.000000	0.000009	0.000000	0.000000	0.000000
19.342889	23.534112	11.135227	-0.084866	0.099268	3.207585	0.000000	-0.015504	0.000000	0.000009	0.000000	0.000000	0.000000
19.676223	23.595445	11.079125	-0.099132	0.069038	3.202417	0.000000	-0.015504	0.000000	0.000009	0.000000	0.000000	0.000000
20.010806	23.666865	11.042942	-0.230710	0.093408	3.197249	0.000000	0.000337	0.000000	0.000009	0.000000	0.000000	0.000000
20.308129	23.807989	10.995472	-0.306143	0.094976	3.197349	0.000000	0.008690	0.000000	0.000009	0.000000	0.000000	0.000000
20.857189	23.733548	11.113566	0.440919	-0.311330	3.175899	0.000000	-0.086710	0.000000	0.000009	-0.000000	0.000000	0.000000
21.406249	22.851061	11.687319	1.156836	-0.739811	3.102414	0.000000	-0.180572	0.000000	0.000009	-0.000000	0.000000	0.000000
21.955309	21.222861	12.757598	1.791040	-1.220988	2.978198	0.000000	-0.271231	0.000000	0.000009	-0.000001	0.000000	0.000000
22.504369	18.963958	14.400637	2.298734	-1.789133	2.805454	0.000000	-0.357079	0.000000	0.000008	-0.000001	0.000000	0.000000
22.950329	17.183821	15.875687	1.707054	-1.504497	2.663506	0.000000	-0.279864	0.000000	0.000008	-0.000001	0.000000	0.000000
23.391289	15.907623	17.051688	1.198061	-1.152265	2.556421	0.000000	-0.206290	0.000000	0.000008	-0.000000	0.000000	0.000000
23.832249	15.054574	17.892655	0.743804	-0.747605	2.481230	0.000000	-0.135066	0.000000	0.000007	-0.000000	0.000000	0.000000
24.273209	14.585702	18.360325	0.323529	-0.308930	2.437078	0.000000	-0.065380	0.000000	0.000007	-0.000000	0.000000	0.000000
24.715418	14.479701	18.433172	-0.046546	0.098532	2.423458	0.000000	-0.002382	0.000000	0.000007	0.000000	0.000000	0.000000
25.012741	14.513497	18.379423	-0.067124	0.082245	2.422750	0.000000	-0.002382	0.000000	0.000007	0.000000	0.000000	0.000000
25.346075	14.565937	18.330679	-0.090194	0.063986	2.421956	0.000000	-0.002382	0.000000	0.000007	0.000000	0.000000	0.000000
25.679408	14.633756	18.294108	-0.113265	0.045727	2.421162	0.000000	-0.002382	0.000000	0.000007	0.000000	0.000000	0.000000
26.013991	14.716999	18.270011	-0.017028	-0.120815	2.420340	0.000000	-0.022017	0.000000	0.000007	0.000000	0.000000	0.000000
26.311314	14.733133	18.346763	-0.001109	-0.182315	2.413794	0.000000	-0.027936	0.000000	0.000007	-0.000000	0.000000	0.000000
26.752274	14.915646	18.308546	-0.414359	0.268651	2.416587	0.000000	0.040616	0.000000	0.000008	0.000000	0.000000	0.000000
27.193234	15.469550	17.876505	-0.846539	0.707395	2.449682	0.000000	0.109631	0.000000	0.000008	0.000000	0.000000	0.000000
27.634194	16.420153	17.070296	-1.317396	1.113952	2.513456	0.000000	0.179895	0.000000	0.000008	0.000001	0.000000	0.000000
28.075154	17.810884	15.926602	-1.848440	1.469825	2.608635	0.000000	0.252208	0.000000	0.000008	0.000001	0.000000	0.000000
28.521114	19.729447	14.480233	-2.468895	1.759735	2.737907	0.000000	0.327836	0.000000	0.000009	0.000001	0.000000	0.000000
29.070174	22.167954	12.868605	-1.946052	1.192841	2.895241	0.000000	0.244426	0.000000	0.000009	0.000001	0.000000	0.000000
29.619234	23.952974	11.829466	-1.285750	0.710909	3.005519	0.000000	0.156681	0.000000	0.000009	0.000000	0.000000	0.000000
30.168294	24.958424	11.288800	-0.534629	0.279614	3.066785	0.000000	0.066156	0.000000	0.000009	0.000000	0.000000	0.000000
30.717354	25.113282	11.208099	0.254256	-0.131765	3.077951	0.000000	-0.025542	0.000000	0.000009	-0.000000	0.000000	0.000000
31.015927	25.004310	11.277333	0.176333	-0.129401	3.072726	0.000000	-0.017501	0.000000	0.000009	-0.000000	0.000000	0.000000
31.349260	24.891337	11.373618	0.162587	-0.159454	3.066892	0.000000	-0.017501	0.000000	0.000009	-0.000000	0.000000	0.000000
31.682593	24.787527	11.489938	0.148841	-0.189507	3.061059	0.000000	-0.017501	0.000000	0.000009	-0.000000	0.000000	0.000000
32.017177	24.692544	11.626842	0.135044	-0.219672	3.055203	0.000000	-0.017501	0.000000	0.000009	-0.000000	0.000000	0.000000
32.314499	24.615885	11.765439	0.058472	-0.215740	3.050000	0.000000	-0.009532	0.000000	0.000009	-0.000000	0.000000	0.000000
32.863559	24.129964	12.241632	0.821294	-0.656666	3.019881	0.000000	-0.100017	0.000000	0.000009	-0.000000	0.000000	0.000000
33.412619	22.833426	13.224703	1.526104	-1.144365	2.940495	0.000000	-0.188729	0.000000	0.000009	-0.000001	0.000000	0.000000
33.961679	20.817852	14.784675	2.123118	-1.713574	2.813250	0.000000	-0.274092	0.000000	0.000008	-0.000001	0.000000	0.000000
34.510739	18.225612	17.032661	2.570165	-2.404838	2.640403	0.000000	-0.354594	0.000000	0.000008	-0.000001	0.000000	0.000000
34.956699	16.210111	19.043363	1.965493	-2.085041	2.498612	0.000000	-0.281658	0.000000	0.000007	-0.000001	0.000000	0.000000
35.397659	14.707236	20.706008	1.455626	-1.671123	2.389795	0.000000	-0.212358	0.000000	0.000007	-0.000001	0.000000	0.000000
35.838619	13.623108	21.968561	1.012263	-1.181171	2.310975	0.000000	-0.145476	0.000000	0.000006	-0.000001	0.000000	0.000000
36.279579	12.908197	22.773575	0.615147	-0.637477	2.261255	0.000000	-0.080251	0.000000	0.000006	-0.000001	0.000000	0.000000
36.721789	12.529149	23.084728	0.276753	-0.121439	2.240040	0.000000	-0.021433	0.000000	0.000006	-0.000000	0.000000	0.000000
37.019112	12.372175	23.160827	0.251205	-0.134509	2.233667	0.000000	-0.021433	0.000000	0.000006	-0.000000	0.000000	0.000000
37.352445	12.214252	23.255383	0.222563	-0.149161	2.226523	0.000000	-0.021433	0.000000	0.000006	-0.000000	0.000000	0.000000
37.685779	12.075424	23.359708	0.193921	-0.163814	2.219379	0.000000	-0.021433	0.000000	0.000005	-0.000000	0.000000	0.000000
38.020362	11.955278	23.474248	0.165171	-0.178521	2.212208	0.000000	-0.021433	0.000000	0.000005	-0.000000	0.000000	0.000000
38.317684	11.864656	23.584290	0.168717	-0.249424	2.205835	0.000000	-0.026842	0.000000	0.000005	-0.000000	0.000000	0.000000
38.758644	11.867165	23.543048	-0.174428	0.342596	2.207927	0.000000	0.036340	0.000000	0.000005	-0.000000	0.000000	0.000000
39.199604	12.174658	22.984597	-0.525543	0.919027	2.237945	0.000000	0.099936	0.000000	0.000005	-0.000000	0.000000	0.000000
39.640564	12.801183	21.934348	-0.900668	1.453644	2.296230	0.000000	0.164670	0.000000	0.000005	-0.000000	0.000000	0.000000
40.081524	13.775365	20.440084	-1.316943	1.922121	2.383446	0.000000	0.231280	0.000000	0.000005	0.000000	0.000000	0.000000
40.527484	15.159281	18.547227	-1.797209	2.304423	2.502059	0.000000	0.300929	0.000000	0.000005	0.000000	0.000000	0.000000
41.076544	16.925454	16.420189	-1.400470	1.592405	2.646756	0.000000	0.225366	0.000000	0.000005	0.000000	0.000000	0.000000
41.625604	18.198728	15.008534	-0.904809	0.993811	2.748804	0.000000	0.145805	0.000000	0.000005	-0.000000	0.000000	0.000000
42.174664	18.889166	14.211712	-0.345237	0.466004	2.806392	0.000000	0.063658	0.000000	0.000005	-0.000000	0.000000	0.000000
42.723724	18.947997	13.972966	0.238721	-0.028611	2.818501	0.000000	-0.019618	0.000000	0.000005	-0.000000	0.000000	0.000000
43.022297	18.839881	13.974631	0.172894	-0.013473	2.814842	0.000000	-0.012254	0.000000	0.000005	-0.000000	0.000000	0.000000
43.502297	18.686498	14.004056	0.146655	-0.047827	2.808960	0.000000	-0.012254	0.000000	0.000004	-0.000000	0.000000	0.000000
43.982297	18.558305	14.066460	0.120415	-0.082182	2.803078	0.000000	-0.012254	0.000000	0.000004	-0.000000	0.000000	0.000000
44.462297	18.455301	14.161844	0.094176	-0.116536	2.797196	0.000000	-0.012254	0.000000	0.000004	-0.000000	0.000000	0.000000
44.942297	18.377488	14.290208	0.067936	-0.150890	2.791315	0.000000	-0.012254	0.000000	0.000004	-0.000000	0.000000	0.000000
45.423547	18.324987	14.451837	-0.049164	-0.113730	2.785435	0.000000	0.001546	0.000000	0.000004	-0.000000	0.000000	0.000000
45.720870	18.359057	14.525662	-0.113395	-0.096618	2.785895	0.000000	0.008825	0.000000	0.000003	-0.000000	0.000000	0.000000
46.269930	18.174444	14.912745	0.447640	-0.612535	2.768167	0.000000	-0.073304	0.000000	0.000003	-0.000001	0.000000	0.000000
46.818990	17.387541	15.886857	0.977057	-1.172082	2.705638	0.000000	-0.154132	0.000000	0.000003	-0.000001	0.000000	0.000000
47.368050	16.053931	17.517382	1.437460	-1.815113	2.599415	0.000000	-0.232227	0.000000	0.000002	-0.000001	0.000000	0.000000
47.917110	14.267815	19.920458	1.796327	-2.587431	2.451382	0.000000	-0.306202	0.000000	0.000002	-0.000001	0.000000	0.000000
48.363070	12.877796	22.057063	1.331630	-2.183450	2.330121	0.000000	-0.237902	0.000000	0.000002	-0.000001	0.000000	0.000000
48.804030	11.883600	23.767814	0.931539	-1.681394	2.239676	0.000000	-0.172708	0.000000	0.000001	-0.000001	0.000000	0.000000
49.244990	11.222223	25.000238	0.574008	-1.102836	2.177518	0.000000	-0.109482	0.000000	0.000001	-0.000001	0.000000	0.000000
49.685950	10.863448	25.698259	0.242701	-0.474100	2.142939	0.000000	-0.047502	0.000000	0.000001	-0.000001	0.000000	0.000000
50.128160	10.791011	25.829837	-0.051171	0.112816	2.135557	0.000000	0.008699	0.000000	0.000001	-0.000001	0.000000	0.000000
50.425482	10.829653	25.766218	-0.078795	0.101159	2.138143	0.000000	0.008699	0.000000	0.000000	-0.000001	0.000000	0.000000
50.758816	10.892506	25.703135	-0.109766	0.088090	2.141043	0.000000	0.008699	0.000000	0.000000	-0.000001	0.000000	0.000000
51.092149	10.976008	25.648765	-0.140737	0.075020	2.143943	0.000000	0.008699	0.000000	0.000000	-0.000001	0.000000	0.000000
51.426732	11.080361	25.603472	-0.081933	-0.145806	2.146832	0.000000	-0.008717	0.000000	-0.000000	-0.000001	0.000000	0.000000
51.724055	11.137113	25.693701	-0.081635	-0.220674	2.144240	0.000000	-0.013976	0.000000	-0.000000	-0.000001	0.000000	0.000000
52.165015	11.354504	25.602484	-0.413229	0.426746	2.151666	0.000000	0.047687	0.000000	-0.000001	-0.000001	0.000000	0.000000
52.605975	11.871522	24.946709	-0.763703	1.054749	2.186377	0.000000	0.109894	0.000000	-0.000001	-0.000001	0.000000	0.000000
53.046935	12.711789	23.756211	-1.149067	1.634762	2.248768	0.000000	0.173352	0.000000	-0.000001	-0.000001	0.000000	0.000000
53.487895	13.913695	22.085159	-1.586930	2.140395	2.339549	0.000000	0.238784	0.000000	-0.000001	-0.000001	0.000000	0.000000
53.933855	15.552751	19.984597	-2.101529	2.549977	2.461260	0.000000	0.307334	0.000000	-0.000002	-0.000001	0.000000	0.000000
54.482915	17.662954	17.620983	-1.719023	1.780271	2.609825	0.000000	0.233030	0.000000	-0.000002	-0.000001	0.000000	0.000000
55.031975	19.283554	16.028424	-1.215094	1.137369	2.716397	0.000000	0.154593	0.000000	-0.000002	-0.000001	0.000000	0.000000
55.581035	20.300079	15.093486	-0.625338	0.575479	2.779083	0.000000	0.073413	0.000000	-0.000003	-0.000000	0.000000	0.000000
56.130095	20.640727	14.749576	0.008590	0.054580	2.796774	0.000000	-0.009069	0.000000	-0.000003	-0.000000	0.000000	0.000000
56.428668	20.672130	14.700066	-0.059837	0.072701	2.796248	0.000000	-0.001761	0.000000	-0.000003	-0.000000	0.000000	0.000000
56.762001	20.717415	14.659198	-0.076019	0.049905	2.795661	0.000000	-0.001761	0.000000	-0.000003	-0.000000	0.000000	0.000000
57.095334	20.773489	14.633526	-0.092202	0.027110	2.795074	0.000000	-0.001761	0.000000	-0.000003	-0.000000	0.000000	0.000000
57.429918	20.840622	14.623041	-0.108445	0.004229	2.794485	0.000000	-0.001761	0.000000	-0.000003	-0.000000	0.000000	0.000000
57.727240	20.909400	14.626571	-0.177513	0.022114	2.793962	0.000000	0.005539	0.000000	-0.000004	-0.000000	0.000000	0.000000
58.276300	20.747579	14.883198	0.470492	-0.492265	2.774364	0.000000	-0.076821	0.000000	-0.000004	-0.000000	0.000000	0.000000
58.825360	19.888289	15.720497	1.085264	-1.041706	2.709854	0.000000	-0.157818	0.000000	-0.000004	-0.000000	0.000000	0.000000
59.374420	18.392225	17.198109	1.623379	-1.665345	2.601575	0.000000	-0.236016	0.000000	-0.000004	-0.000000	0.000000	0.000000
59.923480	16.365062	19.421280	2.046826	-2.407604	2.451449	0.000000	-0.310027	0.000000	-0.000004	0.000000	0.000000	0.000000
60.369440	14.778369	21.397294	1.523702	-2.004618	2.328479	0.000000	-0.241748	0.000000	-0.000004	-0.000000	0.000000	0.000000
60.810400	13.637039	22.953815	1.074400	-1.511796	2.236325	0.000000	-0.176619	0.000000	-0.000004	-0.000000	0.000000	0.000000
61.251360	12.868897	24.043598	0.674185	-0.950188	2.172421	0.000000	-0.113501	0.000000	-0.000004	-0.000000	0.000000	0.000000
61.692320	12.438849	24.617059	0.304771	-0.345347	2.136037	0.000000	-0.051676	0.000000	-0.000004	-0.000000	0.000000	0.000000
62.134530	12.327297	24.647570	-0.020589	0.214707	2.126766	0.000000	0.004344	0.000000	-0.000004	-0.000000	0.000000	0.000000
62.431853	12.346715	24.523647	-0.044719	0.202088	2.128058	0.000000	0.004344	0.000000	-0.000005	-0.000000	0.000000	0.000000
62.765186	12.385544	24.393638	-0.071770	0.187940	2.129506	0.000000	0.004344	0.000000	-0.000005	-0.000000	0.000000	0.000000
63.098520	12.442408	24.273060	-0.098822	0.173793	2.130954	0.000000	0.004344	0.000000	-0.000005	-0.000000	0.000000	0.000000
63.433103	12.517622	24.161515	-0.125975	0.159592	2.132408	0.000000	0.004344	0.000000	-0.000005	-0.000000	0.000000	0.000000
63.730426	12.599707	24.070366	-0.119205	0.087943	2.133700	0.000000	-0.000888	0.000000	-0.000005	-0.000000	0.000000	0.000000
64.171386	12.865257	23.727711	-0.485289	0.686167	2.146848	0.000000	0.060577	0.000000	-0.000005	-0.000001	0.000000	0.000000
64.612346	13.462184	22.869274	-0.873546	1.253170	2.187225	0.000000	0.122732	0.000000	-0.000006	-0.000001	0.000000	0.000000
65.053306	14.417760	21.534115	-1.301711	1.763156	2.255293	0.000000	0.186285	0.000000	-0.000006	-0.000001	0.000000	0.000000
65.494266	15.775642	19.782980	-1.789349	2.192919	2.351825	0.000000	0.251959	0.000000	-0.000006	-0.000001	0.000000	0.000000
65.940226	17.621033	17.670762	-2.363429	2.523662	2.479495	0.000000	0.320905	0.000000	-0.000007	-0.000001	0.000000	0.000000
66.489286	19.986552	15.307800	-1.919376	1.805391	2.635328	0.000000	0.245893	0.000000	-0.000007	-0.000001	0.000000	0.000000
67.038346	21.786662	13.658766	-1.339747	1.215714	2.748714	0.000000	0.166518	0.000000	-0.000008	-0.000001	0.000000	0.000000
67.587406	22.894211	12.606202	-0.665486	0.712630	2.817643	0.000000	0.084191	0.000000	-0.000008	-0.000000	0.000000	0.000000
68.136466	23.230968	12.075137	0.055782	0.260305	2.840892	0.000000	0.000369	0.000000	-0.000008	-0.000000	0.000000	0.000000
68.435038	23.237743	11.908867	-0.017773	0.265025	2.843218	0.000000	0.007793	0.000000	-0.000008	-0.000000	0.000000	0.000000
68.768372	23.254375	11.742169	-0.032122	0.235069	2.845816	0.000000	0.007793	0.000000	-0.000008	-0.000000	0.000000	0.000000
69.101705	23.280572	11.595442	-0.046471	0.205112	2.848414	0.000000	0.007793	0.000000	-0.000008	-0.000000	0.000000	0.000000
69.436288	23.316488	11.468248	-0.060874	0.175044	2.851021	0.000000	0.007793	0.000000	-0.000009	-0.000000	0.000000	0.000000
69.733611	23.356491	11.372104	-0.134703	0.178039	2.853338	0.000000	0.015248	0.000000	-0.000009	-0.000000	0.000000	0.000000
70.282671	23.103282	11.404295	0.593142	-0.237015	2.838529	0.000000	-0.069113	0.000000	-0.000009	0.000000	0.000000	0.000000
