#ParticleID	Turn	x[m]	xp	y[m]	yp	z[m]	dE[GeV]# s	beta_x	beta_y	alpha_x	alpha_y	D_x	D_y	D_px	D_py	orbit_x	orbit_px	orbit_y	orbit_py
0.300000	11.811924	25.026704	-0.010799	-0.027204	2.618066	0.000000	0.000031	0.000000	-0.000001	0.000001	0.000000	0.000000
0.601250	11.826115	25.046724	-0.036306	-0.039250	2.618075	0.000000	0.000031	0.000000	-0.000000	0.000001	0.000000	0.000000
0.898573	11.855189	25.073598	-0.032408	-0.112626	2.618083	0.000000	-0.006390	0.000000	0.000000	0.000001	0.000000	0.000000
1.339533	12.035876	24.894787	-0.378905	0.516587	2.631558	0.000000	0.067567	0.000000	0.000001	0.000001	0.000000	0.000000
1.780493	12.528596	24.169344	-0.742713	1.122297	2.677784	0.000000	0.142293	0.000000	0.000001	0.000001	0.000000	0.000000
2.221453	13.355859	22.930277	-1.140454	1.676943	2.757286	0.000000	0.218640	0.000000	0.000002	0.000001	0.000000	0.000000
2.662413	14.555461	21.233961	-1.590298	2.155289	2.870970	0.000000	0.297477	0.000000	0.000002	0.000001	0.000000	0.000000
3.108373	16.202947	19.132701	-2.117088	2.536704	3.021993	0.000000	0.380191	0.000000	0.000003	0.000002	0.000000	0.000000
3.657433	18.315580	16.772664	-1.707861	1.786990	3.205469	0.000000	0.287153	0.000000	0.000004	0.000001	0.000000	0.000000
4.206493	19.909526	15.161596	-1.177999	1.164560	3.336385	0.000000	0.189021	0.000000	0.000005	0.000001	0.000000	0.000000
4.755553	20.872197	14.184742	-0.564928	0.625079	3.412420	0.000000	0.087537	0.000000	0.000005	0.000001	0.000000	0.000000
5.304613	21.135594	13.772525	0.088045	0.130121	3.432225	0.000000	-0.015500	0.000000	0.000006	0.000001	0.000000	0.000000
5.603185	21.120215	13.679988	0.018683	0.143827	3.430274	0.000000	-0.006532	0.000000	0.000006	0.000001	0.000000	0.000000
5.936519	21.113022	13.592394	0.002895	0.118957	3.428097	0.000000	-0.006532	0.000000	0.000006	0.000001	0.000000	0.000000
6.269852	21.116355	13.521380	-0.012893	0.094086	3.425919	0.000000	-0.006532	0.000000	0.000007	0.000001	0.000000	0.000000
6.604435	21.130285	13.466773	-0.028741	0.069122	3.423733	0.000000	-0.006532	0.000000	0.000007	0.000001	0.000000	0.000000
6.901758	21.151563	13.432265	-0.098085	0.082033	3.421790	0.000000	0.002408	0.000000	0.000007	0.000001	0.000000	0.000000
7.450818	20.898795	13.603033	0.555726	-0.394887	3.394910	0.000000	-0.100177	0.000000	0.000008	0.000001	0.000000	0.000000
7.999878	19.945469	14.309795	1.170283	-0.899933	3.312110	0.000000	-0.200984	0.000000	0.000008	0.000000	0.000000	0.000000
8.548938	18.358925	15.602893	1.702177	-1.469080	3.174860	0.000000	-0.298226	0.000000	0.000008	0.000000	0.000000	0.000000
9.097998	16.251228	17.574430	2.113837	-2.142865	2.985593	0.000000	-0.390179	0.000000	0.000008	-0.000000	0.000000	0.000000
9.543958	14.606853	19.331161	1.586541	-1.779696	2.829896	0.000000	-0.308469	0.000000	0.000008	0.000000	0.000000	0.000000
9.984918	13.410852	20.710654	1.136016	-1.336786	2.711121	0.000000	-0.230757	0.000000	0.000008	0.000000	0.000000	0.000000
10.425878	12.587875	21.671121	0.737393	-0.833053	2.626001	0.000000	-0.155673	0.000000	0.000009	0.000001	0.000000	0.000000
10.866838	12.100325	22.168862	0.372459	-0.291417	2.573569	0.000000	-0.082361	0.000000	0.000009	0.000001	0.000000	0.000000
11.309048	11.925791	22.180706	0.053680	0.209029	2.553207	0.000000	-0.016249	0.000000	0.000009	0.000001	0.000000	0.000000
11.606371	11.901304	22.060568	0.028677	0.195039	2.548375	0.000000	-0.016249	0.000000	0.000010	0.000001	0.000000	0.000000
12.086371	11.893150	21.884172	-0.011688	0.172453	2.540575	0.000000	-0.016249	0.000000	0.000010	0.000001	0.000000	0.000000
12.566371	11.923745	21.729459	-0.052053	0.149867	2.532775	0.000000	-0.016249	0.000000	0.000011	0.000001	0.000000	0.000000
13.046371	11.993091	21.596428	-0.092418	0.127281	2.524975	0.000000	-0.016249	0.000000	0.000011	0.000001	0.000000	0.000000
13.526371	12.101188	21.485080	-0.132783	0.104695	2.517175	0.000000	-0.016249	0.000000	0.000011	0.000001	0.000000	0.000000
14.007621	12.248467	21.395210	-0.173253	0.082050	2.509355	0.000000	-0.016249	0.000000	0.000012	0.000001	0.000000	0.000000
14.304943	12.358925	21.350579	-0.167951	0.015708	2.504523	0.000000	-0.022390	0.000000	0.000012	0.000001	0.000000	0.000000
14.745903	12.665570	21.103047	-0.530089	0.543503	2.510283	0.000000	0.048540	0.000000	0.000013	0.000001	0.000000	0.000000
15.186863	13.301024	20.399210	-0.916446	1.046570	2.547411	0.000000	0.120022	0.000000	0.000013	0.000002	0.000000	0.000000
15.627823	14.294318	19.271091	-1.344672	1.502018	2.616332	0.000000	0.192871	0.000000	0.000014	0.000002	0.000000	0.000000
16.068783	15.690834	17.770020	-1.834332	1.889126	2.717829	0.000000	0.267917	0.000000	0.000015	0.000002	0.000000	0.000000
16.514743	17.578032	15.942791	-2.412555	2.191024	2.854754	0.000000	0.346477	0.000000	0.000016	0.000003	0.000000	0.000000
17.063803	20.001895	13.902535	-1.975879	1.546818	3.021256	0.000000	0.259133	0.000000	0.000018	0.000002	0.000000	0.000000
17.612863	21.866294	12.505404	-1.399637	1.012789	3.138467	0.000000	0.167192	0.000000	0.000019	0.000002	0.000000	0.000000
18.161923	23.039536	11.651884	-0.724531	0.550898	3.204307	0.000000	0.072286	0.000000	0.000019	0.000001	0.000000	0.000000
18.710983	23.438749	11.281180	0.001752	0.128247	3.217609	0.000000	-0.023903	0.000000	0.000020	0.000000	0.000000	0.000000
19.009556	23.478084	11.195099	-0.072263	0.130593	3.212981	0.000000	-0.015497	0.000000	0.000020	0.000000	0.000000	0.000000
19.342889	23.531016	11.118131	-0.086535	0.100310	3.207816	0.000000	-0.015497	0.000000	0.000020	0.000000	0.000000	0.000000
19.676223	23.593463	11.061352	-0.100806	0.070027	3.202650	0.000000	-0.015497	0.000000	0.000020	0.000000	0.000000	0.000000
20.010806	23.666006	11.024526	-0.232386	0.094253	3.197484	0.000000	0.000345	0.000000	0.000020	0.000001	0.000000	0.000000
20.308129	23.808130	10.976568	-0.307824	0.095719	3.197587	0.000000	0.008698	0.000000	0.000020	0.000001	0.000000	0.000000
20.857189	23.735524	11.093552	0.439279	-0.310039	3.176138	0.000000	-0.086710	0.000000	0.000021	-0.000000	0.000000	0.000000
21.406249	22.854762	11.665546	1.155352	-0.737880	3.102652	0.000000	-0.180579	0.000000	0.000020	-0.000001	0.000000	0.000000
21.955309	21.228056	12.733292	1.789818	-1.218279	2.978430	0.000000	-0.271246	0.000000	0.000020	-0.000001	0.000000	0.000000
22.504369	18.970310	14.372844	2.297859	-1.785453	2.805676	0.000000	-0.357102	0.000000	0.000019	-0.000002	0.000000	0.000000
22.950329	17.190968	15.844888	1.706137	-1.501466	2.663720	0.000000	-0.279880	0.000000	0.000018	-0.000002	0.000000	0.000000
23.391289	15.915612	17.018553	1.197060	-1.150017	2.556629	0.000000	-0.206301	0.000000	0.000017	-0.000001	0.000000	0.000000
23.832249	15.063499	17.857922	0.742673	-0.746243	2.481435	0.000000	-0.135072	0.000000	0.000017	-0.000001	0.000000	0.000000
24.273209	14.595700	18.324805	0.322217	-0.308516	2.437281	0.000000	-0.065381	0.000000	0.000017	-0.000000	0.000000	0.000000
24.715418	14.490960	18.397714	-0.048074	0.098070	2.423662	0.000000	-0.002377	0.000000	0.000017	0.000000	0.000000	0.000000
25.012741	14.525662	18.344248	-0.068639	0.081754	2.422956	0.000000	-0.002377	0.000000	0.000017	0.000000	0.000000	0.000000
25.346075	14.579106	18.295843	-0.091695	0.063461	2.422163	0.000000	-0.002377	0.000000	0.000017	0.000000	0.000000	0.000000
25.679408	14.647921	18.259633	-0.114751	0.045169	2.421371	0.000000	-0.002377	0.000000	0.000017	0.000000	0.000000	0.000000
26.013991	14.732153	18.235921	-0.018377	-0.121131	2.420551	0.000000	-0.022014	0.000000	0.000017	0.000000	0.000000	0.000000
26.311314	14.749083	18.312869	-0.002402	-0.182575	2.414006	0.000000	-0.027933	0.000000	0.000017	0.000000	0.000000	0.000000
26.752274	14.932912	18.275287	-0.416063	0.267478	2.416801	0.000000	0.040625	0.000000	0.000017	0.000000	0.000000	0.000000
27.193234	15.488530	17.844665	-0.848733	0.705362	2.449901	0.000000	0.109646	0.000000	0.000018	0.000001	0.000000	0.000000
27.634194	16.441320	17.040595	-1.320180	1.111152	2.513682	0.000000	0.179915	0.000000	0.000018	0.000001	0.000000	0.000000
28.075154	17.834813	15.899662	-1.851942	1.466386	2.608871	0.000000	0.252233	0.000000	0.000019	0.000002	0.000000	0.000000
28.521114	19.756881	14.456591	-2.473282	1.755812	2.738155	0.000000	0.327868	0.000000	0.000020	0.000002	0.000000	0.000000
29.070174	22.199843	12.848752	-1.949731	1.189821	2.895505	0.000000	0.244450	0.000000	0.000021	0.000002	0.000000	0.000000
29.619234	23.988394	11.812532	-1.288461	0.708579	3.005793	0.000000	0.156696	0.000000	0.000021	0.000001	0.000000	0.000000
30.168294	24.996198	11.274124	-0.536181	0.277808	3.067064	0.000000	0.066162	0.000000	0.000022	0.000000	0.000000	0.000000
30.717354	25.152069	11.195179	0.253973	-0.133176	3.078231	0.000000	-0.025545	0.000000	0.000022	-0.000000	0.000000	0.000000
31.015927	25.043316	11.265289	0.175976	-0.130888	3.073005	0.000000	-0.017503	0.000000	0.000022	-0.000000	0.000000	0.000000
31.349260	24.930573	11.362580	0.162254	-0.160985	3.067171	0.000000	-0.017503	0.000000	0.000022	-0.000000	0.000000	0.000000
31.682593	24.826978	11.479935	0.148531	-0.191081	3.061336	0.000000	-0.017503	0.000000	0.000021	-0.000000	0.000000	0.000000
32.017177	24.732195	11.617908	0.134757	-0.221290	3.055480	0.000000	-0.017503	0.000000	0.000021	-0.000000	0.000000	0.000000
32.314499	24.655701	11.757478	0.058108	-0.217420	3.050276	0.000000	-0.009535	0.000000	0.000021	-0.000000	0.000000	0.000000
32.863559	24.169451	12.235433	0.822253	-0.658215	3.020153	0.000000	-0.100029	0.000000	0.000021	-0.000001	0.000000	0.000000
33.412619	22.871161	13.220183	1.528318	-1.145892	2.940759	0.000000	-0.188749	0.000000	0.000020	-0.000002	0.000000	0.000000
33.961679	20.852534	14.781870	2.126430	-1.715189	2.813500	0.000000	-0.274121	0.000000	0.000019	-0.000002	0.000000	0.000000
34.510739	18.256157	17.031730	2.574342	-2.406654	2.640636	0.000000	-0.354631	0.000000	0.000018	-0.000003	0.000000	0.000000
34.956699	16.237351	19.044157	1.968752	-2.087076	2.498830	0.000000	-0.281689	0.000000	0.000016	-0.000002	0.000000	0.000000
35.397659	14.731946	20.708658	1.458124	-1.673282	2.390002	0.000000	-0.212383	0.000000	0.000015	-0.000002	0.000000	0.000000
35.838619	13.645908	21.973133	1.014114	-1.183355	2.311172	0.000000	-0.145496	0.000000	0.000015	-0.000002	0.000000	0.000000
36.279579	12.929618	22.780047	0.616436	-0.639586	2.261444	0.000000	-0.080266	0.000000	0.000014	-0.000001	0.000000	0.000000
36.721789	12.549656	23.092996	0.277587	-0.123394	2.240224	0.000000	-0.021444	0.000000	0.000014	-0.000001	0.000000	0.000000
37.019112	12.392178	23.170258	0.252069	-0.136465	2.233848	0.000000	-0.021444	0.000000	0.000013	-0.000001	0.000000	0.000000
37.352445	12.233667	23.266119	0.223461	-0.151119	2.226701	0.000000	-0.021444	0.000000	0.000013	-0.000001	0.000000	0.000000
37.685779	12.094229	23.371750	0.194854	-0.165773	2.219553	0.000000	-0.021444	0.000000	0.000013	-0.000001	0.000000	0.000000
38.020362	11.973447	23.487601	0.166139	-0.180482	2.212379	0.000000	-0.021444	0.000000	0.000012	-0.000001	0.000000	0.000000
38.317684	11.882240	23.598810	0.169757	-0.251418	2.206003	0.000000	-0.026853	0.000000	0.000012	-0.000001	0.000000	0.000000
38.758644	11.884007	23.559151	-0.173778	0.341013	2.208092	0.000000	0.036334	0.000000	0.000012	-0.000001	0.000000	0.000000
39.199604	12.191087	23.001887	-0.525253	0.917929	2.238108	0.000000	0.099934	0.000000	0.000011	-0.000000	0.000000	0.000000
39.640564	12.817510	21.952373	-0.900725	1.453080	2.296393	0.000000	0.164673	0.000000	0.000011	-0.000000	0.000000	0.000000
40.081524	13.791895	20.458361	-1.317349	1.922116	2.383611	0.000000	0.231287	0.000000	0.000011	0.000000	0.000000	0.000000
40.527484	15.176336	18.565255	-1.797985	2.304983	2.502228	0.000000	0.300940	0.000000	0.000011	0.000000	0.000000	0.000000
41.076544	16.943012	16.437859	-1.400603	1.592503	2.646929	0.000000	0.225371	0.000000	0.000012	0.000000	0.000000	0.000000
41.625604	18.216072	15.026345	-0.904290	0.993454	2.748978	0.000000	0.145805	0.000000	0.000012	-0.000000	0.000000	0.000000
42.174664	18.905596	14.230175	-0.344101	0.465166	2.806565	0.000000	0.063652	0.000000	0.000011	-0.000001	0.000000	0.000000
42.723724	18.962877	13.992638	0.240393	-0.029989	2.818669	0.000000	-0.019630	0.000000	0.000011	-0.000001	0.000000	0.000000
43.022297	18.853783	13.995088	0.174532	-0.014771	2.815007	0.000000	-0.012266	0.000000	0.000011	-0.000001	0.000000	0.000000
43.502297	18.698825	14.025734	0.148297	-0.049076	2.809120	0.000000	-0.012266	0.000000	0.000010	-0.000001	0.000000	0.000000
43.982297	18.569052	14.089313	0.122063	-0.083381	2.803232	0.000000	-0.012266	0.000000	0.000010	-0.000001	0.000000	0.000000
44.462297	18.464465	14.185826	0.095828	-0.117686	2.797345	0.000000	-0.012266	0.000000	0.000009	-0.000001	0.000000	0.000000
44.942297	18.385062	14.315271	0.069594	-0.151992	2.791458	0.000000	-0.012266	0.000000	0.000009	-0.000001	0.000000	0.000000
45.423547	18.330963	14.477937	-0.047531	-0.114654	2.785573	0.000000	0.001536	0.000000	0.000008	-0.000001	0.000000	0.000000
45.720870	18.364061	14.552301	-0.111766	-0.097440	2.786030	0.000000	0.008814	0.000000	0.000008	-0.000001	0.000000	0.000000
46.269930	18.177580	14.940736	0.449391	-0.614191	2.768296	0.000000	-0.073319	0.000000	0.000007	-0.000001	0.000000	0.000000
46.818990	17.388744	15.917176	0.978806	-1.174690	2.705757	0.000000	-0.154151	0.000000	0.000007	-0.000001	0.000000	0.000000
47.368050	16.053272	17.551168	1.439083	-1.818858	2.599523	0.000000	-0.232249	0.000000	0.000006	-0.000002	0.000000	0.000000
47.917110	14.265495	19.959100	1.797710	-2.592581	2.451478	0.000000	-0.306228	0.000000	0.000005	-0.000002	0.000000	0.000000
48.363070	12.874285	22.099932	1.332927	-2.187741	2.330206	0.000000	-0.237926	0.000000	0.000004	-0.000002	0.000000	0.000000
48.804030	11.878961	23.814018	0.932812	-1.684635	2.239751	0.000000	-0.172730	0.000000	0.000004	-0.000002	0.000000	0.000000
49.244990	11.216450	25.048782	0.575314	-1.104880	2.177584	0.000000	-0.109502	0.000000	0.000003	-0.000001	0.000000	0.000000
49.685950	10.856486	25.748042	0.244101	-0.474854	2.142997	0.000000	-0.047521	0.000000	0.000002	-0.000001	0.000000	0.000000
50.128160	10.782747	25.879700	-0.049634	0.113265	2.135607	0.000000	0.008682	0.000000	0.000002	-0.000001	0.000000	0.000000
50.425482	10.820480	25.815807	-0.077276	0.101629	2.138189	0.000000	0.008682	0.000000	0.000001	-0.000001	0.000000	0.000000
50.758816	10.882327	25.752403	-0.108266	0.088584	2.141084	0.000000	0.008682	0.000000	0.000001	-0.000001	0.000000	0.000000
51.092149	10.964834	25.697695	-0.139255	0.075539	2.143978	0.000000	0.008682	0.000000	0.000000	-0.000001	0.000000	0.000000
51.426732	11.068202	25.652049	-0.080569	-0.145657	2.146862	0.000000	-0.008734	0.000000	-0.000000	-0.000001	0.000000	0.000000
51.724055	11.124151	25.742182	-0.080326	-0.220622	2.144265	0.000000	-0.013993	0.000000	-0.000000	-0.000001	0.000000	0.000000
52.165015	11.340247	25.650354	-0.411592	0.428076	2.151684	0.000000	0.047671	0.000000	-0.000001	-0.000001	0.000000	0.000000
52.605975	11.855650	24.992861	-0.761662	1.057298	2.186388	0.000000	0.109877	0.000000	-0.000002	-0.000001	0.000000	0.000000
53.046935	12.693906	23.799620	-1.146530	1.638413	2.248772	0.000000	0.173335	0.000000	-0.000002	-0.000001	0.000000	0.000000
53.487895	13.893314	22.124921	-1.583780	2.144982	2.339547	0.000000	0.238768	0.000000	-0.000003	-0.000002	0.000000	0.000000
53.933855	15.529232	20.019923	-2.097616	2.555294	2.461250	0.000000	0.307318	0.000000	-0.000004	-0.000002	0.000000	0.000000
54.482915	17.635446	17.651242	-1.715713	1.784239	2.609807	0.000000	0.233014	0.000000	-0.000004	-0.000001	0.000000	0.000000
55.031975	19.252850	16.054933	-1.212621	1.140271	2.716371	0.000000	0.154577	0.000000	-0.000005	-0.000001	0.000000	0.000000
55.581035	20.267200	15.117295	-0.623875	0.577523	2.779050	0.000000	0.073399	0.000000	-0.000006	-0.000001	0.000000	0.000000
56.130095	20.606847	14.771543	0.008939	0.055910	2.796733	0.000000	-0.009082	0.000000	-0.000006	-0.000001	0.000000	0.000000
56.428668	20.637998	14.721197	-0.059424	0.074115	2.796204	0.000000	-0.001774	0.000000	-0.000007	-0.000001	0.000000	0.000000
56.762001	20.683017	14.679376	-0.075633	0.051347	2.795613	0.000000	-0.001774	0.000000	-0.000007	-0.000001	0.000000	0.000000
57.095334	20.738841	14.652734	-0.091841	0.028580	2.795022	0.000000	-0.001774	0.000000	-0.000007	-0.000001	0.000000	0.000000
57.429918	20.805742	14.641255	-0.108111	0.005727	2.794429	0.000000	-0.001774	0.000000	-0.000008	-0.000001	0.000000	0.000000
57.727240	20.874328	14.643888	-0.177112	0.023683	2.793901	0.000000	0.005526	0.000000	-0.000008	-0.000001	0.000000	0.000000
58.276300	20.712714	14.899055	0.469716	-0.491162	2.774298	0.000000	-0.076831	0.000000	-0.000008	-0.000001	0.000000	0.000000
58.825360	19.854900	15.735362	1.083366	-1.040991	2.709782	0.000000	-0.157826	0.000000	-0.000009	-0.000000	0.000000	0.000000
59.374420	18.361479	17.212377	1.620493	-1.664968	2.601500	0.000000	-0.236022	0.000000	-0.000009	-0.000000	0.000000	0.000000
59.923480	16.337938	19.435305	2.043156	-2.407537	2.451371	0.000000	-0.310031	0.000000	-0.000009	0.000000	0.000000	0.000000
60.369440	14.754150	21.411046	1.520833	-2.004071	2.328399	0.000000	-0.241753	0.000000	-0.000009	-0.000000	0.000000	0.000000
60.810400	13.615050	22.966882	1.072194	-1.510797	2.236242	0.000000	-0.176626	0.000000	-0.000009	-0.000000	0.000000	0.000000
61.251360	12.848599	24.055601	0.672541	-0.948783	2.172334	0.000000	-0.113511	0.000000	-0.000009	-0.000001	0.000000	0.000000
61.692320	12.419780	24.627667	0.303615	-0.343600	2.135946	0.000000	-0.051688	0.000000	-0.000009	-0.000001	0.000000	0.000000
62.134530	12.309054	24.656509	-0.021354	0.216692	2.126669	0.000000	0.004330	0.000000	-0.000010	-0.000001	0.000000	0.000000
62.431853	12.328937	24.531408	-0.045520	0.204067	2.127956	0.000000	0.004330	0.000000	-0.000010	-0.000001	0.000000	0.000000
62.765186	12.368315	24.400081	-0.072612	0.189913	2.129400	0.000000	0.004330	0.000000	-0.000010	-0.000001	0.000000	0.000000
63.098520	12.425754	24.278190	-0.099705	0.175759	2.130844	0.000000	0.004330	0.000000	-0.000011	-0.000001	0.000000	0.000000
63.433103	12.501572	24.165331	-0.126899	0.161552	2.132293	0.000000	0.004330	0.000000	-0.000011	-0.000001	0.000000	0.000000
63.730426	12.584217	24.073018	-0.120202	0.089887	2.133580	0.000000	-0.000903	0.000000	-0.000011	-0.000001	0.000000	0.000000
64.171386	12.850499	23.728633	-0.485959	0.688130	2.146721	0.000000	0.060559	0.000000	-0.000012	-0.000001	0.000000	0.000000
64.612346	13.447883	22.868490	-0.873918	1.255064	2.187091	0.000000	0.122711	0.000000	-0.000013	-0.000002	0.000000	0.000000
65.053306	14.403662	21.531722	-1.301803	1.764894	2.255149	0.000000	0.186260	0.000000	-0.000013	-0.000002	0.000000	0.000000
65.494266	15.761504	19.779154	-1.789165	2.194422	2.351670	0.000000	0.251931	0.000000	-0.000014	-0.000002	0.000000	0.000000
65.940226	17.606604	17.665727	-2.362959	2.524858	2.479326	0.000000	0.320872	0.000000	-0.000015	-0.000003	0.000000	0.000000
66.489286	19.971921	15.301487	-1.919482	1.806539	2.635143	0.000000	0.245865	0.000000	-0.000017	-0.000002	0.000000	0.000000
67.038346	21.772461	13.651182	-1.340422	1.216894	2.748517	0.000000	0.166497	0.000000	-0.000018	-0.000002	0.000000	0.000000
67.587406	22.881042	12.597267	-0.666681	0.713927	2.817437	0.000000	0.084176	0.000000	-0.000018	-0.000001	0.000000	0.000000
68.136466	23.219360	12.064672	0.054151	0.261811	2.840679	0.000000	0.000362	0.000000	-0.000019	-0.000000	0.000000	0.000000
68.435038	23.227097	11.897531	-0.019386	0.266462	2.843004	0.000000	0.007785	0.000000	-0.000019	-0.000000	0.000000	0.000000
68.768372	23.244807	11.729892	-0.033743	0.236455	2.845599	0.000000	0.007785	0.000000	-0.000019	-0.000000	0.000000	0.000000
69.101705	23.272088	11.582257	-0.048099	0.206449	2.848194	0.000000	0.007785	0.000000	-0.000019	-0.000000	0.000000	0.000000
69.436288	23.309095	11.454185	-0.062509	0.176330	2.850799	0.000000	0.007785	0.000000	-0.000019	-0.000000	0.000000	0.000000
69.733611	23.350074	11.357289	-0.136334	0.179245	2.853114	0.000000	0.015241	0.000000	-0.000020	-0.000001	0.000000	0.000000
70.282671	23.098757	11.387924	0.591346	-0.235370	2.838303	0.000000	-0.069113	0.000000	-0.000020	0.000000	0.000000	0.000000
