#ParticleID	Turn	x[m]	xp	y[m]	yp	z[m]	dE[GeV]# s	beta_x	beta_y	alpha_x	alpha_y	D_x	D_y	D_px	D_py	orbit_x	orbit_px	orbit_y	orbit_py
0.300000	11.807628	25.043786	-0.010381	-0.027000	2.618143	0.000000	0.000001	0.000000	-0.000001	0.000002	0.000000	0.000000
0.601250	11.821569	25.063680	-0.035897	-0.039037	2.618142	0.000000	0.000001	0.000000	-0.000000	0.000002	0.000000	0.000000
0.898573	11.850403	25.090426	-0.032020	-0.112447	2.618142	0.000000	-0.006420	0.000000	0.000000	0.000002	0.000000	0.000000
1.339533	12.030697	24.911260	-0.378398	0.517208	2.631604	0.000000	0.067538	0.000000	0.000001	0.000002	0.000000	0.000000
1.780493	12.522908	24.185085	-0.742064	1.123330	2.677816	0.000000	0.142265	0.000000	0.000002	0.000002	0.000000	0.000000
2.221453	13.349525	22.944941	-1.139632	1.678342	2.757306	0.000000	0.218613	0.000000	0.000002	0.000002	0.000000	0.000000
2.662413	14.548313	21.247253	-1.589267	2.156990	2.870979	0.000000	0.297450	0.000000	0.000003	0.000002	0.000000	0.000000
3.108373	16.194769	19.144369	-2.115798	2.538630	3.021990	0.000000	0.380165	0.000000	0.000004	0.000002	0.000000	0.000000
3.657433	18.306097	16.782483	-1.706788	1.788452	3.205451	0.000000	0.287127	0.000000	0.000005	0.000002	0.000000	0.000000
4.206493	19.899019	15.170015	-1.177218	1.165662	3.336352	0.000000	0.188996	0.000000	0.000006	0.000002	0.000000	0.000000
4.755553	20.861020	14.192112	-0.564496	0.625899	3.412373	0.000000	0.087513	0.000000	0.000007	0.000001	0.000000	0.000000
5.304613	21.124148	13.779121	0.088100	0.130718	3.432166	0.000000	-0.015522	0.000000	0.000008	0.000001	0.000000	0.000000
5.603185	21.108721	13.686216	0.018760	0.144447	3.430208	0.000000	-0.006555	0.000000	0.000008	0.000001	0.000000	0.000000
5.936519	21.101479	13.598205	0.002963	0.119584	3.428023	0.000000	-0.006555	0.000000	0.000008	0.000001	0.000000	0.000000
6.269852	21.104769	13.526771	-0.012833	0.094720	3.425837	0.000000	-0.006555	0.000000	0.000009	0.000001	0.000000	0.000000
6.604435	21.118662	13.471737	-0.028689	0.069763	3.423644	0.000000	-0.006555	0.000000	0.000009	0.000001	0.000000	0.000000
6.901758	21.139911	13.436847	-0.098010	0.082691	3.421694	0.000000	0.002384	0.000000	0.000009	0.000001	0.000000	0.000000
7.450818	20.887275	13.606959	0.555412	-0.394344	3.394802	0.000000	-0.100196	0.000000	0.000010	0.000001	0.000000	0.000000
7.999878	19.934499	14.313171	1.169602	-0.899468	3.311992	0.000000	-0.201000	0.000000	0.000010	0.000001	0.000000	0.000000
8.548938	18.348883	15.605786	1.701177	-1.468659	3.174734	0.000000	-0.298239	0.000000	0.000011	0.000000	0.000000	0.000000
9.097998	16.242427	17.576872	2.112590	-2.142460	2.985461	0.000000	-0.390187	0.000000	0.000011	-0.000000	0.000000	0.000000
9.543958	14.599043	19.333188	1.585558	-1.779173	2.829760	0.000000	-0.308481	0.000000	0.000011	0.000000	0.000000	0.000000
9.984918	13.403809	20.712178	1.135252	-1.336171	2.710979	0.000000	-0.230772	0.000000	0.000011	0.000000	0.000000	0.000000
10.425878	12.581424	21.672072	0.736812	-0.832374	2.625852	0.000000	-0.155692	0.000000	0.000011	0.000001	0.000000	0.000000
10.866838	12.094315	22.169197	0.372035	-0.290705	2.573411	0.000000	-0.082384	0.000000	0.000011	0.000001	0.000000	0.000000
11.309048	11.920094	22.180408	0.053378	0.209744	2.553037	0.000000	-0.016276	0.000000	0.000012	0.000001	0.000000	0.000000
11.606371	11.895790	22.059846	0.028364	0.195750	2.548197	0.000000	-0.016276	0.000000	0.000012	0.000001	0.000000	0.000000
12.086371	11.887945	21.882771	-0.012019	0.173157	2.540385	0.000000	-0.016276	0.000000	0.000013	0.000001	0.000000	0.000000
12.566371	11.918867	21.727385	-0.052402	0.150564	2.532572	0.000000	-0.016276	0.000000	0.000013	0.000001	0.000000	0.000000
13.046371	11.988556	21.593688	-0.092785	0.127971	2.524759	0.000000	-0.016276	0.000000	0.000014	0.000001	0.000000	0.000000
13.526371	12.097013	21.481680	-0.133167	0.105379	2.516946	0.000000	-0.016276	0.000000	0.000015	0.000001	0.000000	0.000000
14.007621	12.244672	21.391154	-0.173656	0.082727	2.509113	0.000000	-0.016276	0.000000	0.000015	0.000001	0.000000	0.000000
14.304943	12.355372	21.346121	-0.168375	0.016394	2.504273	0.000000	-0.022416	0.000000	0.000016	0.000001	0.000000	0.000000
14.745903	12.662360	21.098042	-0.530446	0.544054	2.510020	0.000000	0.048507	0.000000	0.000016	0.000002	0.000000	0.000000
15.186863	13.298105	20.393788	-0.916752	1.046961	2.547133	0.000000	0.119983	0.000000	0.000017	0.000002	0.000000	0.000000
15.627823	14.291652	19.265402	-1.344941	1.502231	2.616034	0.000000	0.192825	0.000000	0.000018	0.000002	0.000000	0.000000
16.068783	15.688395	17.764226	-1.834577	1.889151	2.717508	0.000000	0.267863	0.000000	0.000019	0.000003	0.000000	0.000000
16.514743	17.575805	15.937059	-2.412788	2.190860	2.854407	0.000000	0.346414	0.000000	0.000021	0.000003	0.000000	0.000000
17.063803	19.999994	13.896908	-1.976236	1.546787	3.020877	0.000000	0.259081	0.000000	0.000022	0.000003	0.000000	0.000000
17.612863	21.864842	12.499739	-1.400093	1.012889	3.138062	0.000000	0.167153	0.000000	0.000024	0.000002	0.000000	0.000000
18.161923	23.038624	11.646033	-0.725054	0.551137	3.203885	0.000000	0.072260	0.000000	0.000025	0.000001	0.000000	0.000000
18.710983	23.438431	11.274984	0.001199	0.128642	3.217176	0.000000	-0.023915	0.000000	0.000025	0.000000	0.000000	0.000000
19.009556	23.478093	11.188682	-0.072813	0.130952	3.212545	0.000000	-0.015510	0.000000	0.000025	0.000001	0.000000	0.000000
19.342889	23.531393	11.111482	-0.087085	0.100649	3.207375	0.000000	-0.015510	0.000000	0.000025	0.000001	0.000000	0.000000
19.676223	23.594207	11.054484	-0.101358	0.070346	3.202204	0.000000	-0.015510	0.000000	0.000026	0.000001	0.000000	0.000000
20.010806	23.667119	11.017451	-0.232945	0.094517	3.197034	0.000000	0.000330	0.000000	0.000026	0.000001	0.000000	0.000000
20.308129	23.809577	10.969342	-0.308386	0.095944	3.197132	0.000000	0.008681	0.000000	0.000026	0.000001	0.000000	0.000000
20.857189	23.737558	11.085967	0.438776	-0.309606	3.175679	0.000000	-0.086712	0.000000	0.000026	-0.000000	0.000000	0.000000
21.406249	22.857298	11.657359	1.154945	-0.737209	3.102195	0.000000	-0.180567	0.000000	0.000026	-0.000001	0.000000	0.000000
21.955309	21.230974	12.724216	1.789535	-1.217321	2.977984	0.000000	-0.271219	0.000000	0.000025	-0.000002	0.000000	0.000000
22.504369	18.973461	14.362529	2.297720	-1.784141	2.805249	0.000000	-0.357060	0.000000	0.000024	-0.000003	0.000000	0.000000
22.950329	17.194262	15.833508	1.705952	-1.500399	2.663309	0.000000	-0.279850	0.000000	0.000023	-0.000002	0.000000	0.000000
23.391289	15.919092	17.006357	1.196821	-1.149242	2.556230	0.000000	-0.206281	0.000000	0.000022	-0.000001	0.000000	0.000000
23.832249	15.067218	17.845186	0.742369	-0.745797	2.481043	0.000000	-0.135062	0.000000	0.000022	-0.000001	0.000000	0.000000
24.273209	14.599721	18.311828	0.321834	-0.308418	2.436891	0.000000	-0.065381	0.000000	0.000021	-0.000000	0.000000	0.000000
24.715418	14.495362	18.384807	-0.048544	0.097849	2.423270	0.000000	-0.002386	0.000000	0.000021	0.000000	0.000000	0.000000
25.012741	14.530342	18.331476	-0.069104	0.081522	2.422560	0.000000	-0.002386	0.000000	0.000021	0.000000	0.000000	0.000000
25.346075	14.584095	18.283230	-0.092154	0.063217	2.421765	0.000000	-0.002386	0.000000	0.000021	0.000000	0.000000	0.000000
25.679408	14.653214	18.247186	-0.115204	0.044913	2.420970	0.000000	-0.002386	0.000000	0.000022	0.000000	0.000000	0.000000
26.013991	14.737747	18.223649	-0.018779	-0.121299	2.420147	0.000000	-0.022020	0.000000	0.000022	0.000000	0.000000	0.000000
26.311314	14.754914	18.300701	-0.002784	-0.182724	2.413600	0.000000	-0.027937	0.000000	0.000022	-0.000000	0.000000	0.000000
26.752274	14.939145	18.263396	-0.416594	0.267002	2.416391	0.000000	0.040610	0.000000	0.000022	0.000001	0.000000	0.000000
27.193234	15.495304	17.833330	-0.849437	0.704581	2.449482	0.000000	0.109620	0.000000	0.000022	0.000001	0.000000	0.000000
27.634194	16.448802	17.030071	-1.321088	1.110101	2.513249	0.000000	0.179878	0.000000	0.000023	0.000002	0.000000	0.000000
28.075154	17.843201	15.890166	-1.853096	1.465113	2.608419	0.000000	0.252185	0.000000	0.000024	0.000002	0.000000	0.000000
28.521114	19.766431	14.448308	-2.474738	1.754375	2.737679	0.000000	0.327808	0.000000	0.000025	0.000003	0.000000	0.000000
29.070174	22.210862	12.841862	-1.950934	1.188707	2.894999	0.000000	0.244406	0.000000	0.000026	0.000002	0.000000	0.000000
29.619234	24.000555	11.806725	-1.289326	0.707709	3.005267	0.000000	0.156668	0.000000	0.000027	0.000001	0.000000	0.000000
30.168294	25.009094	11.269169	-0.536646	0.277119	3.066528	0.000000	0.066152	0.000000	0.000028	0.000000	0.000000	0.000000
30.717354	25.165240	11.190903	0.253940	-0.133732	3.077694	0.000000	-0.025538	0.000000	0.000027	-0.000001	0.000000	0.000000
31.015927	25.056524	11.261357	0.175919	-0.131471	3.072470	0.000000	-0.017498	0.000000	0.000027	-0.000000	0.000000	0.000000
31.349260	24.943816	11.359041	0.162204	-0.161582	3.066637	0.000000	-0.017498	0.000000	0.000027	-0.000000	0.000000	0.000000
31.682593	24.840252	11.476800	0.148489	-0.191693	3.060805	0.000000	-0.017498	0.000000	0.000027	-0.000000	0.000000	0.000000
32.017177	24.745494	11.615187	0.134722	-0.221918	3.054950	0.000000	-0.017498	0.000000	0.000027	-0.000000	0.000000	0.000000
32.314499	24.669019	11.755135	0.058048	-0.218069	3.049748	0.000000	-0.009532	0.000000	0.000027	-0.000000	0.000000	0.000000
32.863559	24.182592	12.233781	0.822633	-0.658833	3.019632	0.000000	-0.100009	0.000000	0.000026	-0.000001	0.000000	0.000000
33.412619	22.883653	13.219214	1.529111	-1.146524	2.940253	0.000000	-0.188712	0.000000	0.000025	-0.000002	0.000000	0.000000
33.961679	20.863952	14.781624	2.127581	-1.715880	2.813020	0.000000	-0.274068	0.000000	0.000024	-0.000003	0.000000	0.000000
34.510739	18.266152	17.032297	2.575768	-2.407454	2.640189	0.000000	-0.354563	0.000000	0.000022	-0.000004	0.000000	0.000000
34.956699	16.246214	19.045467	1.969872	-2.087936	2.498411	0.000000	-0.281632	0.000000	0.000021	-0.000003	0.000000	0.000000
35.397659	14.739936	20.710739	1.458991	-1.674163	2.389606	0.000000	-0.212337	0.000000	0.000019	-0.000003	0.000000	0.000000
35.838619	13.653229	21.975985	1.014768	-1.184216	2.310795	0.000000	-0.145460	0.000000	0.000018	-0.000002	0.000000	0.000000
36.279579	12.936444	22.783637	0.616907	-0.640389	2.261081	0.000000	-0.080240	0.000000	0.000018	-0.000002	0.000000	0.000000
36.721789	12.556140	23.097257	0.277911	-0.124110	2.239870	0.000000	-0.021425	0.000000	0.000017	-0.000001	0.000000	0.000000
37.019112	12.398466	23.174945	0.252402	-0.137181	2.233501	0.000000	-0.021425	0.000000	0.000017	-0.000001	0.000000	0.000000
37.352445	12.239730	23.271284	0.223804	-0.151835	2.226359	0.000000	-0.021425	0.000000	0.000016	-0.000001	0.000000	0.000000
37.685779	12.100060	23.377392	0.195207	-0.166489	2.219218	0.000000	-0.021425	0.000000	0.000016	-0.000001	0.000000	0.000000
38.020362	11.979038	23.493722	0.166502	-0.181198	2.212050	0.000000	-0.021425	0.000000	0.000015	-0.000001	0.000000	0.000000
38.317684	11.887613	23.605357	0.170141	-0.252149	2.205680	0.000000	-0.026833	0.000000	0.000015	-0.000001	0.000000	0.000000
38.758644	11.889094	23.566264	-0.173513	0.340466	2.207776	0.000000	0.036345	0.000000	0.000015	-0.000001	0.000000	0.000000
39.199604	12.195987	23.009392	-0.525093	0.917591	2.237795	0.000000	0.099937	0.000000	0.000014	-0.000000	0.000000	0.000000
39.640564	12.822313	21.960078	-0.900664	1.452965	2.296080	0.000000	0.164668	0.000000	0.000014	-0.000000	0.000000	0.000000
40.081524	13.796688	20.466067	-1.317384	1.922231	2.383294	0.000000	0.231274	0.000000	0.000014	0.000000	0.000000	0.000000
40.527484	15.181205	18.572756	-1.798120	2.305322	2.501903	0.000000	0.300919	0.000000	0.000014	0.000001	0.000000	0.000000
41.076544	16.947923	16.445100	-1.400546	1.592639	2.646595	0.000000	0.225361	0.000000	0.000015	0.000000	0.000000	0.000000
41.625604	18.220816	15.033543	-0.904044	0.993397	2.748641	0.000000	0.145805	0.000000	0.000015	-0.000000	0.000000	0.000000
42.174664	18.909974	14.237543	-0.343686	0.464911	2.806232	0.000000	0.063663	0.000000	0.000014	-0.000001	0.000000	0.000000
42.723724	18.966719	14.000402	0.240949	-0.030459	2.818345	0.000000	-0.019608	0.000000	0.000014	-0.000001	0.000000	0.000000
43.022297	18.857298	14.003117	0.175080	-0.015209	2.814689	0.000000	-0.012245	0.000000	0.000013	-0.000001	0.000000	0.000000
43.502297	18.701814	14.034175	0.148845	-0.049495	2.808812	0.000000	-0.012245	0.000000	0.000013	-0.000001	0.000000	0.000000
43.982297	18.571516	14.098148	0.122611	-0.083781	2.802935	0.000000	-0.012245	0.000000	0.000012	-0.000001	0.000000	0.000000
44.462297	18.466402	14.195035	0.096376	-0.118067	2.797058	0.000000	-0.012245	0.000000	0.000012	-0.000001	0.000000	0.000000
44.942297	18.386474	14.324837	0.070141	-0.152353	2.791181	0.000000	-0.012245	0.000000	0.000011	-0.000001	0.000000	0.000000
45.423547	18.331848	14.487841	-0.046988	-0.114947	2.785306	0.000000	0.001555	0.000000	0.000010	-0.000001	0.000000	0.000000
45.720870	18.364622	14.562376	-0.111222	-0.097695	2.785768	0.000000	0.008833	0.000000	0.000010	-0.000001	0.000000	0.000000
46.269930	18.177538	14.951261	0.449939	-0.614759	2.768047	0.000000	-0.073292	0.000000	0.000009	-0.000001	0.000000	0.000000
46.818990	17.388116	15.928513	0.979318	-1.175611	2.705525	0.000000	-0.154116	0.000000	0.000008	-0.000002	0.000000	0.000000
47.368050	16.052118	17.563741	1.439523	-1.820199	2.599312	0.000000	-0.232208	0.000000	0.000007	-0.000002	0.000000	0.000000
47.917110	14.263911	19.973417	1.798048	-2.594436	2.451292	0.000000	-0.306180	0.000000	0.000006	-0.000002	0.000000	0.000000
48.363070	12.872403	22.115766	1.333261	-2.189274	2.330041	0.000000	-0.237882	0.000000	0.000005	-0.000002	0.000000	0.000000
48.804030	11.876780	23.831036	0.933158	-1.685777	2.239605	0.000000	-0.172690	0.000000	0.000004	-0.000002	0.000000	0.000000
49.244990	11.213953	25.066614	0.575688	-1.105579	2.177455	0.000000	-0.109466	0.000000	0.000004	-0.000002	0.000000	0.000000
49.685950	10.853642	25.766283	0.244519	-0.475077	2.142883	0.000000	-0.047488	0.000000	0.000003	-0.000002	0.000000	0.000000
50.128160	10.779505	25.897924	-0.049160	0.113482	2.135508	0.000000	0.008713	0.000000	0.000002	-0.000002	0.000000	0.000000
50.425482	10.816959	25.833899	-0.076809	0.101854	2.138098	0.000000	0.008713	0.000000	0.000002	-0.000002	0.000000	0.000000
50.758816	10.878498	25.770342	-0.107807	0.088817	2.141003	0.000000	0.008713	0.000000	0.000001	-0.000002	0.000000	0.000000
51.092149	10.960702	25.715476	-0.138805	0.075780	2.143908	0.000000	0.008713	0.000000	0.000000	-0.000002	0.000000	0.000000
51.426732	11.063771	25.669666	-0.080162	-0.145550	2.146802	0.000000	-0.008704	0.000000	-0.000000	-0.000002	0.000000	0.000000
51.724055	11.119480	25.759733	-0.079940	-0.220550	2.144215	0.000000	-0.013962	0.000000	-0.000001	-0.000002	0.000000	0.000000
52.165015	11.335186	25.667636	-0.411089	0.428611	2.151647	0.000000	0.047701	0.000000	-0.000001	-0.000002	0.000000	0.000000
52.605975	11.850086	25.009476	-0.761021	1.058270	2.186364	0.000000	0.109907	0.000000	-0.000002	-0.000002	0.000000	0.000000
53.046935	12.687705	23.815200	-1.145721	1.639779	2.248761	0.000000	0.173364	0.000000	-0.000003	-0.000002	0.000000	0.000000
53.487895	13.886311	22.139145	-1.582766	2.146679	2.339549	0.000000	0.238796	0.000000	-0.000004	-0.000002	0.000000	0.000000
53.933855	15.521214	20.032514	-2.096348	2.557245	2.461265	0.000000	0.307347	0.000000	-0.000005	-0.000002	0.000000	0.000000
54.482915	17.626144	17.661967	-1.714657	1.785704	2.609838	0.000000	0.233042	0.000000	-0.000006	-0.000002	0.000000	0.000000
55.031975	19.242541	16.064267	-1.211852	1.141354	2.716416	0.000000	0.154604	0.000000	-0.000007	-0.000002	0.000000	0.000000
55.581035	20.256231	15.125614	-0.623448	0.578301	2.779110	0.000000	0.073424	0.000000	-0.000008	-0.000001	0.000000	0.000000
56.130095	20.595612	14.779149	0.008994	0.056439	2.796807	0.000000	-0.009059	0.000000	-0.000008	-0.000001	0.000000	0.000000
56.428668	20.626714	14.728472	-0.059348	0.074672	2.796285	0.000000	-0.001751	0.000000	-0.000009	-0.000001	0.000000	0.000000
56.762001	20.671686	14.686277	-0.075566	0.051914	2.795701	0.000000	-0.001751	0.000000	-0.000009	-0.000001	0.000000	0.000000
57.095334	20.727469	14.659254	-0.091783	0.029156	2.795118	0.000000	-0.001751	0.000000	-0.000009	-0.000001	0.000000	0.000000
57.429918	20.794333	14.647387	-0.108061	0.006312	2.794533	0.000000	-0.001751	0.000000	-0.000010	-0.000001	0.000000	0.000000
57.727240	20.862892	14.649669	-0.177042	0.024293	2.794013	0.000000	0.005550	0.000000	-0.000010	-0.000001	0.000000	0.000000
58.276300	20.701411	14.904255	0.469405	-0.490705	2.774421	0.000000	-0.076811	0.000000	-0.000011	-0.000001	0.000000	0.000000
58.825360	19.844140	15.740130	1.082695	-1.040655	2.709916	0.000000	-0.157811	0.000000	-0.000011	-0.000001	0.000000	0.000000
59.374420	18.351633	17.216831	1.619509	-1.664729	2.601641	0.000000	-0.236011	0.000000	-0.000011	-0.000000	0.000000	0.000000
59.923480	16.329314	19.439541	2.041928	-2.407377	2.451517	0.000000	-0.310024	0.000000	-0.000011	0.000000	0.000000	0.000000
60.369440	14.746502	21.415068	1.519865	-2.003754	2.328548	0.000000	-0.241743	0.000000	-0.000011	-0.000000	0.000000	0.000000
60.810400	13.608158	22.970562	1.071440	-1.510339	2.236397	0.000000	-0.176612	0.000000	-0.000011	-0.000000	0.000000	0.000000
61.251360	12.842291	24.058822	0.671967	-0.948204	2.172496	0.000000	-0.113492	0.000000	-0.000012	-0.000001	0.000000	0.000000
61.692320	12.413909	24.630334	0.303193	-0.342927	2.136117	0.000000	-0.051666	0.000000	-0.000012	-0.000001	0.000000	0.000000
62.134530	12.303496	24.658551	-0.021655	0.217422	2.126851	0.000000	0.004357	0.000000	-0.000013	-0.000001	0.000000	0.000000
62.431853	12.323562	24.533016	-0.045832	0.204794	2.128147	0.000000	0.004357	0.000000	-0.000013	-0.000001	0.000000	0.000000
62.765186	12.363151	24.401206	-0.072937	0.190637	2.129600	0.000000	0.004357	0.000000	-0.000013	-0.000001	0.000000	0.000000
63.098520	12.420811	24.278834	-0.100042	0.176480	2.131052	0.000000	0.004357	0.000000	-0.000014	-0.000001	0.000000	0.000000
63.433103	12.496859	24.165493	-0.127249	0.162270	2.132510	0.000000	0.004357	0.000000	-0.000014	-0.000001	0.000000	0.000000
63.730426	12.579716	24.072755	-0.120573	0.090600	2.133806	0.000000	-0.000877	0.000000	-0.000015	-0.000001	0.000000	0.000000
64.171386	12.846283	23.727749	-0.486237	0.688818	2.146960	0.000000	0.060591	0.000000	-0.000015	-0.000002	0.000000	0.000000
64.612346	13.443877	22.867022	-0.874116	1.255695	2.187345	0.000000	0.122749	0.000000	-0.000016	-0.000002	0.000000	0.000000
65.053306	14.399800	21.529734	-1.301931	1.765439	2.255422	0.000000	0.186305	0.000000	-0.000017	-0.000002	0.000000	0.000000
65.494266	15.757725	19.776731	-1.789228	2.194857	2.351965	0.000000	0.251983	0.000000	-0.000018	-0.000003	0.000000	0.000000
65.940226	17.602853	17.662974	-2.362960	2.525162	2.479646	0.000000	0.320933	0.000000	-0.000020	-0.000003	0.000000	0.000000
66.489286	19.968261	15.298393	-1.919646	1.806859	2.635494	0.000000	0.245915	0.000000	-0.000021	-0.000003	0.000000	0.000000
67.038346	21.769066	13.647718	-1.340737	1.217253	2.748892	0.000000	0.166535	0.000000	-0.000022	-0.000002	0.000000	0.000000
67.587406	22.878067	12.593375	-0.667126	0.714351	2.817829	0.000000	0.084202	0.000000	-0.000023	-0.000001	0.000000	0.000000
68.136466	23.216931	12.060266	0.053607	0.262329	2.841082	0.000000	0.000374	0.000000	-0.000024	-0.000001	0.000000	0.000000
68.435038	23.224991	11.892827	-0.019927	0.266953	2.843411	0.000000	0.007799	0.000000	-0.000024	-0.000001	0.000000	0.000000
68.768372	23.243061	11.724867	-0.034285	0.236927	2.846011	0.000000	0.007799	0.000000	-0.000024	-0.000001	0.000000	0.000000
69.101705	23.270704	11.576924	-0.048643	0.206902	2.848611	0.000000	0.007799	0.000000	-0.000024	-0.000001	0.000000	0.000000
69.436288	23.308077	11.448556	-0.063055	0.176764	2.851220	0.000000	0.007799	0.000000	-0.000025	-0.000001	0.000000	0.000000
69.733611	23.349380	11.351407	-0.136882	0.179647	2.853539	0.000000	0.015256	0.000000	-0.000025	-0.000001	0.000000	0.000000
70.282671	23.098673	11.381508	0.590791	-0.234794	2.838733	0.000000	-0.069111	0.000000	-0.000025	0.000000	0.000000	0.000000
