#ParticleID	Turn	x[m]	xp	y[m]	yp	z[m]	dE[GeV]# s	beta_x	beta_y	alpha_x	alpha_y	D_x	D_y	D_px	D_py	orbit_x	orbit_px	orbit_y	orbit_py
0.300000	11.805214	25.052882	-0.010179	-0.026876	2.618219	0.000000	-0.000028	0.000000	-0.000001	0.000002	0.000000	0.000000
0.601250	11.819035	25.072700	-0.035700	-0.038910	2.618210	0.000000	-0.000028	0.000000	-0.000001	0.000002	0.000000	0.000000
0.898573	11.847753	25.099369	-0.031834	-0.112337	2.618201	0.000000	-0.006448	0.000000	-0.000000	0.000002	0.000000	0.000000
1.339533	12.027855	24.920002	-0.378147	0.517552	2.631651	0.000000	0.067511	0.000000	0.000001	0.000002	0.000000	0.000000
1.780493	12.519813	24.193426	-0.741736	1.123893	2.677852	0.000000	0.142239	0.000000	0.000001	0.000002	0.000000	0.000000
2.221453	13.346102	22.952698	-1.139213	1.679097	2.757330	0.000000	0.218587	0.000000	0.000002	0.000002	0.000000	0.000000
2.662413	14.544473	21.254272	-1.588738	2.157903	2.870992	0.000000	0.297425	0.000000	0.000003	0.000002	0.000000	0.000000
3.108373	16.190397	19.150517	-2.115132	2.539661	3.021992	0.000000	0.380140	0.000000	0.000004	0.000002	0.000000	0.000000
3.657433	18.301054	16.787640	-1.706240	1.789237	3.205439	0.000000	0.287102	0.000000	0.000005	0.000002	0.000000	0.000000
4.206493	19.893459	15.174419	-1.176828	1.166256	3.336328	0.000000	0.188972	0.000000	0.000006	0.000002	0.000000	0.000000
4.755553	20.855130	14.195949	-0.564290	0.626345	3.412336	0.000000	0.087490	0.000000	0.000007	0.000001	0.000000	0.000000
5.304613	21.118141	13.782536	0.088106	0.131048	3.432116	0.000000	-0.015544	0.000000	0.000007	0.000001	0.000000	0.000000
5.603185	21.102702	13.689427	0.018778	0.144789	3.430152	0.000000	-0.006577	0.000000	0.000008	0.000001	0.000000	0.000000
5.936519	21.095450	13.601188	0.002977	0.119928	3.427959	0.000000	-0.006577	0.000000	0.000008	0.000001	0.000000	0.000000
6.269852	21.098732	13.529522	-0.012824	0.095068	3.425767	0.000000	-0.006577	0.000000	0.000009	0.000001	0.000000	0.000000
6.604435	21.112620	13.474255	-0.028685	0.070115	3.423566	0.000000	-0.006577	0.000000	0.000009	0.000001	0.000000	0.000000
6.901758	21.133868	13.439154	-0.097994	0.083052	3.421610	0.000000	0.002363	0.000000	0.000009	0.000001	0.000000	0.000000
7.450818	20.881325	13.608904	0.555227	-0.394041	3.394707	0.000000	-0.100215	0.000000	0.000010	0.000001	0.000000	0.000000
7.999878	19.928857	14.314806	1.169229	-0.899202	3.311887	0.000000	-0.201016	0.000000	0.000010	0.000001	0.000000	0.000000
8.548938	18.343742	15.607138	1.700643	-1.468410	3.174621	0.000000	-0.298251	0.000000	0.000011	0.000000	0.000000	0.000000
9.097998	16.237945	17.577952	2.111931	-2.142210	2.985344	0.000000	-0.390195	0.000000	0.000011	-0.000000	0.000000	0.000000
9.543958	14.595086	19.334017	1.585037	-1.778865	2.829638	0.000000	-0.308492	0.000000	0.000011	0.000000	0.000000	0.000000
9.984918	13.400260	20.712716	1.134843	-1.335820	2.710851	0.000000	-0.230787	0.000000	0.000011	0.000000	0.000000	0.000000
10.425878	12.578193	21.672287	0.736496	-0.831996	2.625717	0.000000	-0.155710	0.000000	0.000011	0.000001	0.000000	0.000000
10.866838	12.091326	22.169072	0.371798	-0.290316	2.573267	0.000000	-0.082406	0.000000	0.000012	0.000001	0.000000	0.000000
11.309048	11.917284	22.179943	0.053203	0.210126	2.552883	0.000000	-0.016301	0.000000	0.000012	0.000001	0.000000	0.000000
11.606371	11.893085	22.059154	0.028184	0.196129	2.548036	0.000000	-0.016301	0.000000	0.000012	0.000001	0.000000	0.000000
12.086371	11.885417	21.881716	-0.012208	0.173532	2.540211	0.000000	-0.016301	0.000000	0.000013	0.000001	0.000000	0.000000
12.566371	11.916524	21.725972	-0.052599	0.150936	2.532386	0.000000	-0.016301	0.000000	0.000014	0.000001	0.000000	0.000000
13.046371	11.986408	21.591920	-0.092991	0.128339	2.524561	0.000000	-0.016301	0.000000	0.000014	0.000001	0.000000	0.000000
13.526371	12.095067	21.479561	-0.133383	0.105742	2.516736	0.000000	-0.016301	0.000000	0.000015	0.000001	0.000000	0.000000
14.007621	12.242937	21.388687	-0.173880	0.083087	2.508891	0.000000	-0.016301	0.000000	0.000016	0.000001	0.000000	0.000000
14.304943	12.353773	21.343441	-0.168609	0.016758	2.504044	0.000000	-0.022440	0.000000	0.000016	0.000001	0.000000	0.000000
14.745903	12.660953	21.095075	-0.530651	0.544338	2.509778	0.000000	0.048477	0.000000	0.000017	0.000002	0.000000	0.000000
15.186863	13.296869	20.390611	-0.916937	1.047152	2.546876	0.000000	0.119946	0.000000	0.000018	0.000002	0.000000	0.000000
15.627823	14.290575	19.262101	-1.345116	1.502321	2.615759	0.000000	0.192781	0.000000	0.000019	0.000003	0.000000	0.000000
16.068783	15.687470	17.760891	-1.834749	1.889135	2.717213	0.000000	0.267812	0.000000	0.000020	0.000003	0.000000	0.000000
16.514743	17.575035	15.933786	-2.412965	2.190738	2.854087	0.000000	0.346355	0.000000	0.000021	0.000004	0.000000	0.000000
17.063803	19.999450	13.893725	-1.976467	1.546745	3.020527	0.000000	0.259033	0.000000	0.000023	0.000003	0.000000	0.000000
17.612863	21.864574	12.496560	-1.400362	1.012924	3.137689	0.000000	0.167117	0.000000	0.000025	0.000002	0.000000	0.000000
18.161923	23.038664	11.642774	-0.725341	0.551251	3.203495	0.000000	0.072236	0.000000	0.000026	0.000001	0.000000	0.000000
18.710983	23.438788	11.271554	0.000913	0.128842	3.216776	0.000000	-0.023926	0.000000	0.000026	0.000001	0.000000	0.000000
19.009556	23.478621	11.185141	-0.073099	0.131133	3.212141	0.000000	-0.015523	0.000000	0.000026	0.000001	0.000000	0.000000
19.342889	23.532112	11.107824	-0.087372	0.100819	3.206967	0.000000	-0.015523	0.000000	0.000026	0.000001	0.000000	0.000000
19.676223	23.595118	11.050715	-0.101645	0.070505	3.201792	0.000000	-0.015523	0.000000	0.000027	0.000001	0.000000	0.000000
20.010806	23.668222	11.013580	-0.233238	0.094646	3.196618	0.000000	0.000315	0.000000	0.000027	0.000001	0.000000	0.000000
20.308129	23.810854	10.965398	-0.308682	0.096052	3.196712	0.000000	0.008666	0.000000	0.000027	0.000001	0.000000	0.000000
20.857189	23.739136	11.081843	0.438528	-0.309385	3.175253	0.000000	-0.086714	0.000000	0.000027	-0.000000	0.000000	0.000000
21.406249	22.859114	11.652923	1.154763	-0.736859	3.101772	0.000000	-0.180555	0.000000	0.000027	-0.000001	0.000000	0.000000
21.955309	21.232947	12.719314	1.789432	-1.216817	2.977572	0.000000	-0.271194	0.000000	0.000026	-0.000002	0.000000	0.000000
22.504369	18.975500	14.356973	2.297703	-1.783447	2.804854	0.000000	-0.357022	0.000000	0.000025	-0.000003	0.000000	0.000000
22.950329	17.196332	15.827391	1.705899	-1.499839	2.662929	0.000000	-0.279822	0.000000	0.000024	-0.000002	0.000000	0.000000
23.391289	15.921226	16.999815	1.196730	-1.148841	2.555860	0.000000	-0.206263	0.000000	0.000023	-0.000001	0.000000	0.000000
23.832249	15.069451	17.838366	0.742235	-0.745571	2.480679	0.000000	-0.135053	0.000000	0.000023	-0.000001	0.000000	0.000000
24.273209	14.602092	18.304891	0.321652	-0.308379	2.436529	0.000000	-0.065381	0.000000	0.000022	-0.000000	0.000000	0.000000
24.715418	14.497918	18.377919	-0.048777	0.097717	2.422906	0.000000	-0.002395	0.000000	0.000022	0.000000	0.000000	0.000000
25.012741	14.533036	18.324669	-0.069334	0.081384	2.422194	0.000000	-0.002395	0.000000	0.000023	0.000000	0.000000	0.000000
25.346075	14.586941	18.276517	-0.092381	0.063073	2.421395	0.000000	-0.002395	0.000000	0.000023	0.000000	0.000000	0.000000
25.679408	14.656210	18.240572	-0.115427	0.044762	2.420597	0.000000	-0.002395	0.000000	0.000023	0.000000	0.000000	0.000000
26.013991	14.740891	18.217137	-0.018972	-0.121404	2.419771	0.000000	-0.022025	0.000000	0.000023	0.000000	0.000000	0.000000
26.311314	14.758172	18.294254	-0.002966	-0.182819	2.413223	0.000000	-0.027942	0.000000	0.000023	0.000000	0.000000	0.000000
26.752274	14.942598	18.257109	-0.416858	0.266735	2.416010	0.000000	0.040596	0.000000	0.000023	0.000001	0.000000	0.000000
27.193234	15.499031	17.827351	-0.849795	0.704152	2.449092	0.000000	0.109596	0.000000	0.000023	0.000001	0.000000	0.000000
27.634194	16.452893	17.024534	-1.321557	1.109531	2.512846	0.000000	0.179844	0.000000	0.000024	0.000002	0.000000	0.000000
28.075154	17.847762	15.885185	-1.853698	1.464427	2.607999	0.000000	0.252140	0.000000	0.000025	0.000002	0.000000	0.000000
28.521114	19.771598	14.443978	-2.475501	1.753605	2.737236	0.000000	0.327752	0.000000	0.000026	0.000003	0.000000	0.000000
29.070174	22.216794	12.838279	-1.951557	1.188108	2.894529	0.000000	0.244364	0.000000	0.000028	0.000002	0.000000	0.000000
29.619234	24.007073	11.803727	-1.289765	0.707238	3.004779	0.000000	0.156642	0.000000	0.000029	0.000001	0.000000	0.000000
30.168294	25.015978	11.266633	-0.536870	0.276742	3.066029	0.000000	0.066142	0.000000	0.000029	0.000000	0.000000	0.000000
30.717354	25.172245	11.188741	0.253947	-0.134041	3.077195	0.000000	-0.025532	0.000000	0.000029	-0.000001	0.000000	0.000000
31.015927	25.063534	11.259386	0.175911	-0.131792	3.071972	0.000000	-0.017494	0.000000	0.000029	-0.000000	0.000000	0.000000
31.349260	24.950830	11.357287	0.162200	-0.161912	3.066141	0.000000	-0.017494	0.000000	0.000029	-0.000000	0.000000	0.000000
31.682593	24.847267	11.475268	0.148489	-0.192031	3.060309	0.000000	-0.017494	0.000000	0.000029	-0.000000	0.000000	0.000000
32.017177	24.752508	11.613883	0.134726	-0.222263	3.054457	0.000000	-0.017494	0.000000	0.000028	-0.000000	0.000000	0.000000
32.314499	24.676030	11.754039	0.058038	-0.218424	3.049255	0.000000	-0.009528	0.000000	0.000028	-0.000000	0.000000	0.000000
32.863559	24.189487	12.233067	0.822854	-0.659177	3.019146	0.000000	-0.099990	0.000000	0.000028	-0.000001	0.000000	0.000000
33.412619	22.890184	13.218884	1.529547	-1.146882	2.939782	0.000000	-0.188678	0.000000	0.000027	-0.000002	0.000000	0.000000
33.961679	20.869900	14.781705	2.128201	-1.716277	2.812572	0.000000	-0.274019	0.000000	0.000025	-0.000003	0.000000	0.000000
34.510739	18.271336	17.032848	2.576529	-2.407918	2.639772	0.000000	-0.354500	0.000000	0.000024	-0.000004	0.000000	0.000000
34.956699	16.250794	19.046446	1.970472	-2.088427	2.498021	0.000000	-0.281579	0.000000	0.000022	-0.000003	0.000000	0.000000
35.397659	14.744047	20.712155	1.459459	-1.674658	2.389236	0.000000	-0.212294	0.000000	0.000021	-0.000003	0.000000	0.000000
35.838619	13.656978	21.977832	1.015124	-1.184694	2.310442	0.000000	-0.145426	0.000000	0.000020	-0.000002	0.000000	0.000000
36.279579	12.939922	22.785888	0.617168	-0.640827	2.260741	0.000000	-0.080214	0.000000	0.000019	-0.000002	0.000000	0.000000
36.721789	12.559423	23.099870	0.278097	-0.124494	2.239540	0.000000	-0.021408	0.000000	0.000018	-0.000001	0.000000	0.000000
37.019112	12.401637	23.177786	0.252593	-0.137565	2.233176	0.000000	-0.021408	0.000000	0.000018	-0.000001	0.000000	0.000000
37.352445	12.242772	23.274381	0.224000	-0.152219	2.226040	0.000000	-0.021408	0.000000	0.000017	-0.000001	0.000000	0.000000
37.685779	12.102970	23.380745	0.195407	-0.166872	2.218905	0.000000	-0.021408	0.000000	0.000017	-0.000001	0.000000	0.000000
38.020362	11.981813	23.497331	0.166707	-0.181581	2.211742	0.000000	-0.021408	0.000000	0.000017	-0.000001	0.000000	0.000000
38.317684	11.890264	23.609194	0.170357	-0.252540	2.205378	0.000000	-0.026815	0.000000	0.000016	-0.000001	0.000000	0.000000
38.758644	11.891582	23.570399	-0.173355	0.340182	2.207480	0.000000	0.036355	0.000000	0.000016	-0.000001	0.000000	0.000000
39.199604	12.198359	23.013726	-0.524987	0.917426	2.237502	0.000000	0.099940	0.000000	0.000015	-0.000000	0.000000	0.000000
39.640564	12.824612	21.964501	-0.900604	1.452928	2.295786	0.000000	0.164663	0.000000	0.000015	-0.000000	0.000000	0.000000
40.081524	13.798953	20.470465	-1.317368	1.922323	2.382997	0.000000	0.231261	0.000000	0.000015	0.000000	0.000000	0.000000
40.527484	15.183474	18.577016	-1.798146	2.305540	2.501598	0.000000	0.300899	0.000000	0.000016	0.000001	0.000000	0.000000
41.076544	16.950170	16.449186	-1.400479	1.592740	2.646282	0.000000	0.225350	0.000000	0.000016	0.000000	0.000000	0.000000
41.625604	18.222941	15.037580	-0.903890	0.993386	2.748326	0.000000	0.145805	0.000000	0.000016	-0.000000	0.000000	0.000000
42.174664	18.911886	14.241652	-0.343454	0.464789	2.805919	0.000000	0.063673	0.000000	0.000015	-0.000001	0.000000	0.000000
42.723724	18.968340	14.004711	0.241242	-0.030702	2.818040	0.000000	-0.019588	0.000000	0.000015	-0.000001	0.000000	0.000000
43.022297	18.858748	14.007562	0.175368	-0.015435	2.814390	0.000000	-0.012226	0.000000	0.000014	-0.000001	0.000000	0.000000
43.502297	18.702987	14.038831	0.149133	-0.049710	2.808522	0.000000	-0.012226	0.000000	0.000014	-0.000001	0.000000	0.000000
43.982297	18.572412	14.103005	0.122898	-0.083985	2.802655	0.000000	-0.012226	0.000000	0.000013	-0.000001	0.000000	0.000000
44.462297	18.467023	14.200083	0.096663	-0.118261	2.796787	0.000000	-0.012226	0.000000	0.000013	-0.000001	0.000000	0.000000
44.942297	18.386820	14.330065	0.070428	-0.152536	2.790919	0.000000	-0.012226	0.000000	0.000012	-0.000001	0.000000	0.000000
45.423547	18.331919	14.493239	-0.046702	-0.115092	2.785053	0.000000	0.001573	0.000000	0.000011	-0.000001	0.000000	0.000000
45.720870	18.364523	14.567859	-0.110935	-0.097819	2.785521	0.000000	0.008850	0.000000	0.000011	-0.000001	0.000000	0.000000
46.269930	18.177129	14.956971	0.450214	-0.615053	2.767812	0.000000	-0.073267	0.000000	0.000010	-0.000002	0.000000	0.000000
46.818990	17.387421	15.934648	0.979562	-1.176095	2.705306	0.000000	-0.154084	0.000000	0.000009	-0.000002	0.000000	0.000000
47.368050	16.051179	17.570527	1.439719	-1.820909	2.599113	0.000000	-0.232168	0.000000	0.000008	-0.000002	0.000000	0.000000
47.917110	14.262791	19.981128	1.798181	-2.595421	2.451116	0.000000	-0.306135	0.000000	0.000007	-0.000002	0.000000	0.000000
48.363070	12.871161	22.124282	1.333402	-2.190084	2.329884	0.000000	-0.237841	0.000000	0.000006	-0.000002	0.000000	0.000000
48.804030	11.875408	23.840176	0.933311	-1.686376	2.239465	0.000000	-0.172653	0.000000	0.000005	-0.000002	0.000000	0.000000
49.244990	11.212438	25.076178	0.575862	-1.105939	2.177331	0.000000	-0.109432	0.000000	0.000004	-0.000002	0.000000	0.000000
49.685950	10.851960	25.776053	0.244722	-0.475183	2.142774	0.000000	-0.047457	0.000000	0.000003	-0.000002	0.000000	0.000000
50.128160	10.777629	25.907672	-0.048925	0.113613	2.135411	0.000000	0.008741	0.000000	0.000003	-0.000002	0.000000	0.000000
50.425482	10.814944	25.843569	-0.076578	0.101989	2.138011	0.000000	0.008741	0.000000	0.000002	-0.000002	0.000000	0.000000
50.758816	10.876330	25.779921	-0.107580	0.088956	2.140925	0.000000	0.008741	0.000000	0.000001	-0.000002	0.000000	0.000000
51.092149	10.958385	25.724961	-0.138583	0.075924	2.143840	0.000000	0.008741	0.000000	0.000001	-0.000002	0.000000	0.000000
51.426732	11.061307	25.679052	-0.079965	-0.145478	2.146743	0.000000	-0.008675	0.000000	0.000000	-0.000002	0.000000	0.000000
51.724055	11.116901	25.769076	-0.079754	-0.220496	2.144164	0.000000	-0.013933	0.000000	-0.000000	-0.000002	0.000000	0.000000
52.165015	11.332416	25.676822	-0.410841	0.428911	2.151610	0.000000	0.047729	0.000000	-0.000001	-0.000002	0.000000	0.000000
52.605975	11.847065	25.018294	-0.760698	1.058802	2.186339	0.000000	0.109934	0.000000	-0.000002	-0.000002	0.000000	0.000000
53.046935	12.684361	23.823455	-1.145309	1.640519	2.248747	0.000000	0.173391	0.000000	-0.000003	-0.000002	0.000000	0.000000
53.487895	13.882557	22.146669	-1.582245	2.147593	2.339547	0.000000	0.238823	0.000000	-0.000004	-0.000002	0.000000	0.000000
53.933855	15.516939	20.039159	-2.095695	2.558292	2.461275	0.000000	0.307373	0.000000	-0.000004	-0.000002	0.000000	0.000000
54.482915	17.621211	17.667611	-1.714120	1.786492	2.609863	0.000000	0.233068	0.000000	-0.000006	-0.000002	0.000000	0.000000
55.031975	19.237099	16.069161	-1.211469	1.141940	2.716455	0.000000	0.154629	0.000000	-0.000007	-0.000002	0.000000	0.000000
55.581035	20.250465	15.129956	-0.623245	0.578726	2.779162	0.000000	0.073447	0.000000	-0.000007	-0.000001	0.000000	0.000000
56.130095	20.589730	14.783098	0.009001	0.056733	2.796872	0.000000	-0.009037	0.000000	-0.000008	-0.000001	0.000000	0.000000
56.428668	20.620820	14.732239	-0.059330	0.074981	2.796356	0.000000	-0.001729	0.000000	-0.000009	-0.000001	0.000000	0.000000
56.762001	20.665781	14.689836	-0.075552	0.052228	2.795780	0.000000	-0.001729	0.000000	-0.000009	-0.000001	0.000000	0.000000
57.095334	20.721556	14.662602	-0.091774	0.029474	2.795204	0.000000	-0.001729	0.000000	-0.000009	-0.000001	0.000000	0.000000
57.429918	20.788416	14.650520	-0.108056	0.006636	2.794626	0.000000	-0.001729	0.000000	-0.000010	-0.000001	0.000000	0.000000
57.727240	20.856973	14.652609	-0.177026	0.024628	2.794112	0.000000	0.005572	0.000000	-0.000010	-0.000001	0.000000	0.000000
58.276300	20.695583	14.906870	0.469224	-0.490447	2.774532	0.000000	-0.076793	0.000000	-0.000011	-0.000001	0.000000	0.000000
58.825360	19.838614	15.742495	1.082329	-1.040456	2.710036	0.000000	-0.157796	0.000000	-0.000011	-0.000001	0.000000	0.000000
59.374420	18.346599	17.219003	1.618984	-1.664573	2.601768	0.000000	-0.236000	0.000000	-0.000011	-0.000000	0.000000	0.000000
59.923480	16.324926	19.441561	2.041283	-2.407255	2.451649	0.000000	-0.310018	0.000000	-0.000012	0.000000	0.000000	0.000000
60.369440	14.742628	21.416944	1.519354	-2.003553	2.328684	0.000000	-0.241733	0.000000	-0.000012	-0.000000	0.000000	0.000000
60.810400	13.604686	22.972229	1.071038	-1.510069	2.236539	0.000000	-0.176598	0.000000	-0.000012	-0.000000	0.000000	0.000000
61.251360	12.839132	24.060225	0.671656	-0.947877	2.172644	0.000000	-0.113475	0.000000	-0.000012	-0.000001	0.000000	0.000000
61.692320	12.410990	24.631429	0.302960	-0.342558	2.136274	0.000000	-0.051644	0.000000	-0.000012	-0.000001	0.000000	0.000000
62.134530	12.300753	24.659307	-0.021829	0.217813	2.127019	0.000000	0.004382	0.000000	-0.000013	-0.000001	0.000000	0.000000
62.431853	12.320923	24.533541	-0.046011	0.205184	2.128322	0.000000	0.004382	0.000000	-0.000013	-0.000001	0.000000	0.000000
62.765186	12.360635	24.401471	-0.073123	0.191025	2.129783	0.000000	0.004382	0.000000	-0.000014	-0.000001	0.000000	0.000000
63.098520	12.418420	24.278840	-0.100234	0.176867	2.131244	0.000000	0.004382	0.000000	-0.000014	-0.000001	0.000000	0.000000
63.433103	12.494599	24.165242	-0.127447	0.162655	2.132710	0.000000	0.004382	0.000000	-0.000015	-0.000001	0.000000	0.000000
63.730426	12.577575	24.072275	-0.120782	0.090984	2.134014	0.000000	-0.000852	0.000000	-0.000015	-0.000001	0.000000	0.000000
64.171386	12.844307	23.726940	-0.486403	0.689179	2.147180	0.000000	0.060621	0.000000	-0.000016	-0.000002	0.000000	0.000000
64.612346	13.442031	22.865910	-0.874247	1.256017	2.187579	0.000000	0.122785	0.000000	-0.000017	-0.000002	0.000000	0.000000
65.053306	14.398056	21.528361	-1.302032	1.765707	2.255673	0.000000	0.186347	0.000000	-0.000018	-0.000003	0.000000	0.000000
65.494266	15.756059	19.775150	-1.789304	2.195059	2.352236	0.000000	0.252032	0.000000	-0.000019	-0.000003	0.000000	0.000000
65.940226	17.601244	17.661246	-2.363014	2.525288	2.479941	0.000000	0.320989	0.000000	-0.000020	-0.000004	0.000000	0.000000
66.489286	19.966754	15.296517	-1.919776	1.807003	2.635817	0.000000	0.245961	0.000000	-0.000022	-0.000003	0.000000	0.000000
67.038346	21.767740	13.645669	-1.340935	1.217426	2.749238	0.000000	0.166571	0.000000	-0.000023	-0.000002	0.000000	0.000000
67.587406	22.876989	12.591115	-0.667376	0.714564	2.818192	0.000000	0.084226	0.000000	-0.000024	-0.000001	0.000000	0.000000
68.136466	23.216149	12.057743	0.053322	0.262599	2.841455	0.000000	0.000386	0.000000	-0.000025	-0.000001	0.000000	0.000000
68.435038	23.224378	11.890149	-0.020212	0.267206	2.843788	0.000000	0.007812	0.000000	-0.000025	-0.000001	0.000000	0.000000
68.768372	23.242639	11.722023	-0.034570	0.237170	2.846392	0.000000	0.007812	0.000000	-0.000025	-0.000001	0.000000	0.000000
69.101705	23.270471	11.573922	-0.048929	0.207134	2.848996	0.000000	0.007812	0.000000	-0.000025	-0.000001	0.000000	0.000000
69.436288	23.308035	11.445402	-0.063341	0.176986	2.851610	0.000000	0.007812	0.000000	-0.000026	-0.000001	0.000000	0.000000
69.733611	23.349509	11.348124	-0.137170	0.179851	2.853933	0.000000	0.015271	0.000000	-0.000026	-0.000001	0.000000	0.000000
70.282671	23.099112	11.377950	0.590516	-0.234494	2.839131	0.000000	-0.069110	0.000000	-0.000026	0.000000	0.000000	0.000000
