#ParticleID	Turn	x[m]	xp	y[m]	yp	z[m]	dE[GeV]# s	beta_x	beta_y	alpha_x	alpha_y	D_x	D_y	D_px	D_py	orbit_x	orbit_px	orbit_y	orbit_py
0.300000	11.821496	24.987337	-0.011932	-0.027565	2.618080	0.000000	0.000025	0.000000	-0.000000	0.000001	0.000000	0.000000
0.601250	11.836363	25.007580	-0.037419	-0.039631	2.618087	0.000000	0.000025	0.000000	0.000000	0.000001	0.000000	0.000000
0.898573	11.866094	25.034687	-0.033475	-0.112931	2.618094	0.000000	-0.006396	0.000000	0.000000	0.000001	0.000000	0.000000
1.339533	12.047839	24.856597	-0.380248	0.515261	2.631566	0.000000	0.067561	0.000000	0.000001	0.000001	0.000000	0.000000
1.780493	12.541887	24.132754	-0.744393	1.120009	2.677790	0.000000	0.142287	0.000000	0.000001	0.000001	0.000000	0.000000
2.221453	13.370808	22.896090	-1.142548	1.673798	2.757290	0.000000	0.218634	0.000000	0.000001	0.000001	0.000000	0.000000
2.662413	14.572474	21.202875	-1.592903	2.151430	2.870972	0.000000	0.297471	0.000000	0.000002	0.000001	0.000000	0.000000
3.108373	16.222557	19.105313	-2.120327	2.532305	3.021993	0.000000	0.380186	0.000000	0.000002	0.000001	0.000000	0.000000
3.657433	18.338488	16.749491	-1.710595	1.783667	3.205466	0.000000	0.287148	0.000000	0.000003	0.000001	0.000000	0.000000
4.206493	19.935069	15.141592	-1.180035	1.162076	3.336379	0.000000	0.189016	0.000000	0.000003	0.000001	0.000000	0.000000
4.755553	20.899525	14.167089	-0.566124	0.623257	3.412412	0.000000	0.087532	0.000000	0.000003	0.000001	0.000000	0.000000
5.304613	21.163731	13.756570	0.087775	0.128831	3.432215	0.000000	-0.015504	0.000000	0.000004	0.000001	0.000000	0.000000
5.603185	21.148552	13.664833	0.018358	0.142480	3.430263	0.000000	-0.006537	0.000000	0.000004	0.000001	0.000000	0.000000
5.936519	21.141569	13.578142	0.002591	0.117592	3.428084	0.000000	-0.006537	0.000000	0.000004	0.000001	0.000000	0.000000
6.269852	21.145098	13.508044	-0.013176	0.092703	3.425905	0.000000	-0.006537	0.000000	0.000004	0.000001	0.000000	0.000000
6.604435	21.159210	13.454369	-0.029002	0.067721	3.423717	0.000000	-0.006537	0.000000	0.000004	0.000001	0.000000	0.000000
6.901758	21.180637	13.420699	-0.098405	0.080586	3.421774	0.000000	0.002403	0.000000	0.000004	0.000001	0.000000	0.000000
7.450818	20.927684	13.592883	0.556381	-0.396034	3.394891	0.000000	-0.100180	0.000000	0.000005	0.000000	0.000000	0.000000
7.999878	19.973122	14.300779	1.171866	-0.900862	3.312090	0.000000	-0.200987	0.000000	0.000005	0.000000	0.000000	0.000000
8.548938	18.384377	15.594808	1.704577	-1.469857	3.174838	0.000000	-0.298229	0.000000	0.000005	0.000000	0.000000	0.000000
9.097998	16.273671	17.567141	2.116885	-2.143547	2.985570	0.000000	-0.390181	0.000000	0.000005	-0.000000	0.000000	0.000000
9.543958	14.626883	19.324618	1.588924	-1.780682	2.829873	0.000000	-0.308472	0.000000	0.000005	0.000000	0.000000	0.000000
9.984918	13.429029	20.705098	1.137850	-1.338029	2.711096	0.000000	-0.230760	0.000000	0.000005	0.000000	0.000000	0.000000
10.425878	12.604646	21.666755	0.738761	-0.834497	2.625975	0.000000	-0.155676	0.000000	0.000005	0.000000	0.000000	0.000000
10.866838	12.116071	22.165833	0.373423	-0.292996	2.573542	0.000000	-0.082366	0.000000	0.000005	0.000000	0.000000	0.000000
11.309048	11.940846	22.179107	0.054323	0.207389	2.553177	0.000000	-0.016254	0.000000	0.000005	0.000001	0.000000	0.000000
11.606371	11.915968	22.059942	0.029350	0.193407	2.548344	0.000000	-0.016254	0.000000	0.000006	0.000001	0.000000	0.000000
12.086371	11.907144	21.885106	-0.010967	0.170834	2.540542	0.000000	-0.016254	0.000000	0.000006	0.000001	0.000000	0.000000
12.566371	11.937025	21.731940	-0.051284	0.148261	2.532740	0.000000	-0.016254	0.000000	0.000006	0.000001	0.000000	0.000000
13.046371	12.005609	21.600444	-0.091601	0.125689	2.524938	0.000000	-0.016254	0.000000	0.000006	0.000001	0.000000	0.000000
13.526371	12.112898	21.490618	-0.131917	0.103116	2.517135	0.000000	-0.016254	0.000000	0.000007	0.000001	0.000000	0.000000
14.007621	12.259321	21.402260	-0.172339	0.080484	2.509313	0.000000	-0.016254	0.000000	0.000007	0.000001	0.000000	0.000000
14.304943	12.369227	21.358558	-0.166981	0.014128	2.504480	0.000000	-0.022395	0.000000	0.000007	0.000001	0.000000	0.000000
14.745903	12.675109	21.112314	-0.529322	0.542173	2.510237	0.000000	0.048533	0.000000	0.000007	0.000001	0.000000	0.000000
15.186863	13.309962	20.409517	-0.915847	1.045550	2.547363	0.000000	0.120014	0.000000	0.000008	0.000001	0.000000	0.000000
15.627823	14.302792	19.282144	-1.344214	1.501354	2.616280	0.000000	0.192862	0.000000	0.000008	0.000001	0.000000	0.000000
16.068783	15.698958	17.781490	-1.833994	1.888849	2.717773	0.000000	0.267907	0.000000	0.000009	0.000001	0.000000	0.000000
16.514743	17.585901	15.954329	-2.412321	2.191149	2.854694	0.000000	0.346465	0.000000	0.000009	0.000002	0.000000	0.000000
17.063803	20.009300	13.914069	-1.975273	1.546698	3.021190	0.000000	0.259123	0.000000	0.000010	0.000001	0.000000	0.000000
17.612863	21.872847	12.517207	-1.398702	1.012416	3.138396	0.000000	0.167184	0.000000	0.000011	0.000001	0.000000	0.000000
18.161923	23.044910	11.664247	-0.723333	0.550245	3.204233	0.000000	0.072280	0.000000	0.000011	0.000001	0.000000	0.000000
18.710983	23.442700	11.294434	0.003129	0.127268	3.217533	0.000000	-0.023906	0.000000	0.000011	0.000000	0.000000	0.000000
19.009556	23.481219	11.208904	-0.070896	0.129690	3.212905	0.000000	-0.015500	0.000000	0.000011	0.000000	0.000000	0.000000
19.342889	23.533239	11.132523	-0.085163	0.099452	3.207738	0.000000	-0.015500	0.000000	0.000011	0.000000	0.000000	0.000000
19.676223	23.594770	11.076302	-0.099430	0.069213	3.202572	0.000000	-0.015500	0.000000	0.000011	0.000000	0.000000	0.000000
20.010806	23.666390	11.040005	-0.231007	0.093560	3.197406	0.000000	0.000342	0.000000	0.000012	0.000000	0.000000	0.000000
20.308129	23.807692	10.992447	-0.306440	0.095112	3.197507	0.000000	0.008696	0.000000	0.000012	0.000000	0.000000	0.000000
20.857189	23.733581	11.110346	0.440618	-0.311106	3.176059	0.000000	-0.086709	0.000000	0.000012	-0.000000	0.000000	0.000000
21.406249	22.851416	11.683798	1.156553	-0.739484	3.102573	0.000000	-0.180577	0.000000	0.000012	-0.000000	0.000000	0.000000
21.955309	21.223508	12.753650	1.790795	-1.220533	2.978353	0.000000	-0.271241	0.000000	0.000011	-0.000001	0.000000	0.000000
22.504369	18.964844	14.396104	2.298544	-1.788518	2.805602	0.000000	-0.357094	0.000000	0.000011	-0.000001	0.000000	0.000000
22.950329	17.184876	15.870651	1.706864	-1.503987	2.663649	0.000000	-0.279874	0.000000	0.000010	-0.000001	0.000000	0.000000
23.391289	15.908848	17.046256	1.197862	-1.151882	2.556560	0.000000	-0.206297	0.000000	0.000010	-0.000001	0.000000	0.000000
23.832249	15.055982	17.886948	0.743587	-0.747367	2.481367	0.000000	-0.135070	0.000000	0.000010	-0.000000	0.000000	0.000000
24.273209	14.587313	18.354475	0.323284	-0.308847	2.437214	0.000000	-0.065380	0.000000	0.000010	-0.000000	0.000000	0.000000
24.715418	14.481544	18.427319	-0.046825	0.098471	2.423595	0.000000	-0.002378	0.000000	0.000010	0.000000	0.000000	0.000000
25.012741	14.515506	18.373608	-0.067401	0.082179	2.422888	0.000000	-0.002378	0.000000	0.000010	0.000000	0.000000	0.000000
25.346075	14.568130	18.324910	-0.090470	0.063915	2.422095	0.000000	-0.002378	0.000000	0.000010	0.000000	0.000000	0.000000
25.679408	14.636132	18.288388	-0.113538	0.045650	2.421302	0.000000	-0.002378	0.000000	0.000010	0.000000	0.000000	0.000000
26.013991	14.719557	18.264345	-0.017278	-0.120852	2.420482	0.000000	-0.022015	0.000000	0.000010	0.000000	0.000000	0.000000
26.311314	14.735839	18.341120	-0.001350	-0.182342	2.413936	0.000000	-0.027934	0.000000	0.000010	-0.000000	0.000000	0.000000
26.752274	14.918593	18.302995	-0.414670	0.268472	2.416731	0.000000	0.040622	0.000000	0.000010	0.000000	0.000000	0.000000
27.193234	15.472808	17.871177	-0.846935	0.707071	2.449829	0.000000	0.109641	0.000000	0.000010	0.000000	0.000000	0.000000
27.634194	16.423803	17.065311	-1.317894	1.113499	2.513608	0.000000	0.179908	0.000000	0.000010	0.000001	0.000000	0.000000
28.075154	17.815027	15.922066	-1.849063	1.469263	2.608794	0.000000	0.252225	0.000000	0.000010	0.000001	0.000000	0.000000
28.521114	19.734213	14.476237	-2.469674	1.759091	2.738074	0.000000	0.327857	0.000000	0.000011	0.000001	0.000000	0.000000
29.070174	22.173513	12.865230	-1.946710	1.192347	2.895418	0.000000	0.244442	0.000000	0.000012	0.000001	0.000000	0.000000
29.619234	23.959167	11.826567	-1.286240	0.710531	3.005703	0.000000	0.156691	0.000000	0.000012	0.000001	0.000000	0.000000
30.168294	24.965046	11.286266	-0.534916	0.279325	3.066972	0.000000	0.066160	0.000000	0.000012	0.000000	0.000000	0.000000
30.717354	25.120098	11.205842	0.254191	-0.131985	3.078139	0.000000	-0.025544	0.000000	0.000012	-0.000000	0.000000	0.000000
31.015927	25.011173	11.275214	0.176255	-0.129635	3.072913	0.000000	-0.017502	0.000000	0.000012	-0.000000	0.000000	0.000000
31.349260	24.898250	11.371657	0.162514	-0.159695	3.067079	0.000000	-0.017502	0.000000	0.000012	-0.000000	0.000000	0.000000
31.682593	24.794488	11.488141	0.148773	-0.189755	3.061245	0.000000	-0.017502	0.000000	0.000012	-0.000000	0.000000	0.000000
32.017177	24.699549	11.625214	0.134980	-0.219928	3.055389	0.000000	-0.017502	0.000000	0.000012	-0.000000	0.000000	0.000000
32.314499	24.622928	11.763965	0.058394	-0.216007	3.050185	0.000000	-0.009534	0.000000	0.000012	-0.000000	0.000000	0.000000
32.863559	24.136964	12.240434	0.821451	-0.656906	3.020064	0.000000	-0.100025	0.000000	0.000012	-0.000001	0.000000	0.000000
33.412619	22.840130	13.223762	1.526484	-1.144595	2.940673	0.000000	-0.188742	0.000000	0.000011	-0.000001	0.000000	0.000000
33.961679	20.824027	14.783990	2.123695	-1.713811	2.813419	0.000000	-0.274111	0.000000	0.000011	-0.000001	0.000000	0.000000
34.510739	18.231064	17.032248	2.570898	-2.405098	2.640560	0.000000	-0.354619	0.000000	0.000010	-0.000002	0.000000	0.000000
34.956699	16.214984	19.043202	1.966063	-2.085343	2.498759	0.000000	-0.281678	0.000000	0.000009	-0.000001	0.000000	0.000000
35.397659	14.711667	20.706127	1.456061	-1.671453	2.389934	0.000000	-0.212374	0.000000	0.000009	-0.000001	0.000000	0.000000
35.838619	13.627207	21.968976	1.012583	-1.181513	2.311108	0.000000	-0.145489	0.000000	0.000008	-0.000001	0.000000	0.000000
36.279579	12.912060	22.774291	0.615366	-0.637815	2.261382	0.000000	-0.080261	0.000000	0.000008	-0.000001	0.000000	0.000000
36.721789	12.532859	23.085736	0.276891	-0.121760	2.240164	0.000000	-0.021440	0.000000	0.000007	-0.000001	0.000000	0.000000
37.019112	12.375801	23.162026	0.251348	-0.134830	2.233790	0.000000	-0.021440	0.000000	0.000007	-0.000001	0.000000	0.000000
37.352445	12.217781	23.256797	0.222713	-0.149483	2.226643	0.000000	-0.021440	0.000000	0.000007	-0.000001	0.000000	0.000000
37.685779	12.078851	23.361337	0.194077	-0.164136	2.219497	0.000000	-0.021440	0.000000	0.000007	-0.000001	0.000000	0.000000
38.020362	11.958598	23.476092	0.165333	-0.178844	2.212324	0.000000	-0.021440	0.000000	0.000007	-0.000001	0.000000	0.000000
38.317684	11.867878	23.586327	0.168893	-0.249751	2.205949	0.000000	-0.026849	0.000000	0.000007	-0.000001	0.000000	0.000000
38.758644	11.870264	23.545349	-0.174324	0.342327	2.208039	0.000000	0.036336	0.000000	0.000006	-0.000000	0.000000	0.000000
39.199604	12.177695	22.987106	-0.525506	0.918829	2.238056	0.000000	0.099935	0.000000	0.000006	-0.000000	0.000000	0.000000
39.640564	12.804216	21.936996	-0.900696	1.453525	2.296341	0.000000	0.164672	0.000000	0.000006	-0.000000	0.000000	0.000000
40.081524	13.778451	20.442800	-1.317037	1.922087	2.383558	0.000000	0.231285	0.000000	0.000006	0.000000	0.000000	0.000000
40.527484	15.162482	18.549934	-1.797374	2.304477	2.502174	0.000000	0.300937	0.000000	0.000006	0.000000	0.000000	0.000000
41.076544	16.928772	16.422874	-1.400517	1.592393	2.646874	0.000000	0.225370	0.000000	0.000006	0.000000	0.000000	0.000000
41.625604	18.202029	15.011269	-0.904733	0.993731	2.748923	0.000000	0.145805	0.000000	0.000006	-0.000000	0.000000	0.000000
42.174664	18.892318	14.214573	-0.345044	0.465851	2.806510	0.000000	0.063654	0.000000	0.000006	-0.000000	0.000000	0.000000
42.723724	18.950880	13.976040	0.239017	-0.028848	2.818615	0.000000	-0.019626	0.000000	0.000006	-0.000001	0.000000	0.000000
43.022297	18.842591	13.977840	0.173184	-0.013697	2.814955	0.000000	-0.012262	0.000000	0.000006	-0.000001	0.000000	0.000000
43.502297	18.688929	14.007475	0.146946	-0.048043	2.809069	0.000000	-0.012262	0.000000	0.000005	-0.000001	0.000000	0.000000
43.982297	18.560456	14.070083	0.120707	-0.082390	2.803184	0.000000	-0.012262	0.000000	0.000005	-0.000001	0.000000	0.000000
44.462297	18.457171	14.165664	0.094469	-0.116736	2.797298	0.000000	-0.012262	0.000000	0.000005	-0.000001	0.000000	0.000000
44.942297	18.379075	14.294217	0.068231	-0.151083	2.791413	0.000000	-0.012262	0.000000	0.000005	-0.000001	0.000000	0.000000
45.423547	18.326290	14.456028	-0.048874	-0.113895	2.785530	0.000000	0.001539	0.000000	0.000004	-0.000001	0.000000	0.000000
45.720870	18.360188	14.529949	-0.113107	-0.096766	2.785987	0.000000	0.008818	0.000000	0.000004	-0.000001	0.000000	0.000000
46.269930	18.175239	14.917267	0.447959	-0.612818	2.768256	0.000000	-0.073313	0.000000	0.000004	-0.000001	0.000000	0.000000
46.818990	17.387981	15.891773	0.977383	-1.172520	2.705720	0.000000	-0.154145	0.000000	0.000003	-0.000001	0.000000	0.000000
47.368050	16.054020	17.522878	1.437770	-1.815738	2.599490	0.000000	-0.232242	0.000000	0.000003	-0.000001	0.000000	0.000000
47.917110	14.267583	19.926762	1.796599	-2.588286	2.451448	0.000000	-0.306220	0.000000	0.000003	-0.000001	0.000000	0.000000
48.363070	12.877331	22.064071	1.331882	-2.184166	2.330180	0.000000	-0.237918	0.000000	0.000002	-0.000001	0.000000	0.000000
48.804030	11.882918	23.775381	0.931782	-1.681940	2.239728	0.000000	-0.172723	0.000000	0.000002	-0.000001	0.000000	0.000000
49.244990	11.221326	25.008201	0.574253	-1.103186	2.177565	0.000000	-0.109495	0.000000	0.000001	-0.000001	0.000000	0.000000
49.685950	10.862330	25.706439	0.242960	-0.474239	2.142980	0.000000	-0.047514	0.000000	0.000001	-0.000001	0.000000	0.000000
50.128160	10.789654	25.838044	-0.050890	0.112875	2.135593	0.000000	0.008688	0.000000	0.000001	-0.000001	0.000000	0.000000
50.425482	10.828129	25.774388	-0.078517	0.101221	2.138176	0.000000	0.008688	0.000000	0.000000	-0.000001	0.000000	0.000000
50.758816	10.890799	25.711263	-0.109491	0.088156	2.141073	0.000000	0.008688	0.000000	0.000000	-0.000001	0.000000	0.000000
51.092149	10.974118	25.656847	-0.140465	0.075091	2.143969	0.000000	0.008688	0.000000	-0.000000	-0.000001	0.000000	0.000000
51.426732	11.078290	25.611506	-0.081681	-0.145797	2.146854	0.000000	-0.008728	0.000000	-0.000000	-0.000001	0.000000	0.000000
51.724055	11.134893	25.701728	-0.081392	-0.220681	2.144259	0.000000	-0.013987	0.000000	-0.000001	-0.000001	0.000000	0.000000
52.165015	11.352045	25.610424	-0.412929	0.426951	2.151681	0.000000	0.047677	0.000000	-0.000001	-0.000001	0.000000	0.000000
52.605975	11.868769	24.954377	-0.763332	1.055157	2.186387	0.000000	0.109883	0.000000	-0.000001	-0.000001	0.000000	0.000000
53.046935	12.708673	23.763438	-1.148610	1.635354	2.248773	0.000000	0.173341	0.000000	-0.000002	-0.000001	0.000000	0.000000
53.487895	13.910128	22.091792	-1.586364	2.141144	2.339550	0.000000	0.238774	0.000000	-0.000002	-0.000001	0.000000	0.000000
53.933855	15.548621	19.990503	-2.100827	2.550849	2.461256	0.000000	0.307324	0.000000	-0.000002	-0.000001	0.000000	0.000000
54.482915	17.658107	17.626059	-1.718426	1.780919	2.609816	0.000000	0.233020	0.000000	-0.000003	-0.000001	0.000000	0.000000
55.031975	19.278128	16.032890	-1.214643	1.137840	2.716382	0.000000	0.154583	0.000000	-0.000003	-0.000001	0.000000	0.000000
55.581035	20.294253	15.097516	-0.625065	0.575807	2.779064	0.000000	0.073404	0.000000	-0.000004	-0.000001	0.000000	0.000000
56.130095	20.634708	14.753314	0.008665	0.054787	2.796750	0.000000	-0.009077	0.000000	-0.000004	-0.000001	0.000000	0.000000
56.428668	20.666059	14.703674	-0.059750	0.072922	2.796222	0.000000	-0.001770	0.000000	-0.000004	-0.000001	0.000000	0.000000
56.762001	20.711288	14.662656	-0.075937	0.050131	2.795632	0.000000	-0.001770	0.000000	-0.000004	-0.000001	0.000000	0.000000
57.095334	20.767308	14.636832	-0.092124	0.027341	2.795042	0.000000	-0.001770	0.000000	-0.000004	-0.000001	0.000000	0.000000
57.429918	20.834391	14.626190	-0.108372	0.004465	2.794450	0.000000	-0.001770	0.000000	-0.000005	-0.000001	0.000000	0.000000
57.727240	20.903127	14.629580	-0.177429	0.022362	2.793924	0.000000	0.005531	0.000000	-0.000005	-0.000001	0.000000	0.000000
58.276300	20.741329	14.885980	0.470366	-0.492098	2.774322	0.000000	-0.076828	0.000000	-0.000005	-0.000000	0.000000	0.000000
58.825360	19.882290	15.723136	1.084936	-1.041609	2.709809	0.000000	-0.157824	0.000000	-0.000005	-0.000000	0.000000	0.000000
59.374420	18.386687	17.200676	1.622872	-1.665312	2.601528	0.000000	-0.236020	0.000000	-0.000005	-0.000000	0.000000	0.000000
59.923480	16.360164	19.423844	2.046176	-2.407631	2.451399	0.000000	-0.310030	0.000000	-0.000005	0.000000	0.000000	0.000000
60.369440	14.773984	21.399846	1.523196	-2.004561	2.328428	0.000000	-0.241752	0.000000	-0.000005	-0.000000	0.000000	0.000000
60.810400	13.633047	22.956280	1.074013	-1.511658	2.236272	0.000000	-0.176624	0.000000	-0.000005	-0.000000	0.000000	0.000000
61.251360	12.865201	24.045908	0.673899	-0.949975	2.172365	0.000000	-0.113508	0.000000	-0.000005	-0.000000	0.000000	0.000000
61.692320	12.435364	24.619152	0.304574	-0.345069	2.135978	0.000000	-0.051684	0.000000	-0.000006	-0.000000	0.000000	0.000000
62.134530	12.323951	24.649392	-0.020715	0.215032	2.126703	0.000000	0.004335	0.000000	-0.000006	-0.000001	0.000000	0.000000
62.431853	12.343445	24.525276	-0.044851	0.202412	2.127992	0.000000	0.004335	0.000000	-0.000006	-0.000001	0.000000	0.000000
62.765186	12.382365	24.395051	-0.071910	0.188264	2.129437	0.000000	0.004335	0.000000	-0.000006	-0.000001	0.000000	0.000000
63.098520	12.439325	24.274257	-0.098969	0.174116	2.130882	0.000000	0.004335	0.000000	-0.000006	-0.000001	0.000000	0.000000
63.433103	12.514639	24.162496	-0.126130	0.159915	2.132333	0.000000	0.004335	0.000000	-0.000006	-0.000001	0.000000	0.000000
63.730426	12.596818	24.071156	-0.119373	0.088261	2.133622	0.000000	-0.000898	0.000000	-0.000007	-0.000001	0.000000	0.000000
64.171386	12.862489	23.728213	-0.485396	0.686498	2.146765	0.000000	0.060565	0.000000	-0.000007	-0.000001	0.000000	0.000000
64.612346	13.459485	22.869485	-0.873595	1.253499	2.187137	0.000000	0.122718	0.000000	-0.000007	-0.000001	0.000000	0.000000
65.053306	14.415080	21.534042	-1.301706	1.763467	2.255198	0.000000	0.186269	0.000000	-0.000008	-0.000001	0.000000	0.000000
65.494266	15.772933	19.782646	-1.789289	2.193199	2.351723	0.000000	0.251941	0.000000	-0.000008	-0.000001	0.000000	0.000000
65.940226	17.618245	17.670198	-2.363311	2.523897	2.479384	0.000000	0.320884	0.000000	-0.000009	-0.000002	0.000000	0.000000
66.489286	19.983694	15.306989	-1.919366	1.805608	2.635206	0.000000	0.245875	0.000000	-0.000010	-0.000001	0.000000	0.000000
67.038346	21.783853	13.657720	-1.339847	1.215929	2.748584	0.000000	0.166505	0.000000	-0.000010	-0.000001	0.000000	0.000000
67.587406	22.891568	12.604914	-0.665687	0.712858	2.817507	0.000000	0.084181	0.000000	-0.000011	-0.000001	0.000000	0.000000
68.136466	23.228596	12.073585	0.055493	0.260562	2.840751	0.000000	0.000364	0.000000	-0.000011	-0.000000	0.000000	0.000000
68.435038	23.235541	11.907166	-0.018058	0.265271	2.843077	0.000000	0.007788	0.000000	-0.000011	-0.000000	0.000000	0.000000
68.768372	23.252364	11.740307	-0.032409	0.235307	2.845672	0.000000	0.007788	0.000000	-0.000011	-0.000000	0.000000	0.000000
69.101705	23.278753	11.593424	-0.046759	0.205343	2.848268	0.000000	0.007788	0.000000	-0.000011	-0.000000	0.000000	0.000000
69.436288	23.314863	11.466078	-0.061164	0.175266	2.850874	0.000000	0.007788	0.000000	-0.000011	-0.000000	0.000000	0.000000
69.733611	23.355039	11.369804	-0.134992	0.178249	2.853190	0.000000	0.015243	0.000000	-0.000011	-0.000000	0.000000	0.000000
70.282671	23.102171	11.401729	0.592814	-0.236737	2.838379	0.000000	-0.069113	0.000000	-0.000011	0.000000	0.000000	0.000000
