#ParticleID	Turn	x[m]	xp	y[m]	yp	z[m]	dE[GeV]# s	beta_x	beta_y	alpha_x	alpha_y	D_x	D_y	D_px	D_py	orbit_x	orbit_px	orbit_y	orbit_py
0.300000	11.817371	25.004325	-0.011413	-0.027428	2.618047	0.000000	0.000038	0.000000	-0.000001	0.000001	0.000000	0.000000
0.601250	11.831927	25.024482	-0.036908	-0.039485	2.618058	0.000000	0.000038	0.000000	-0.000001	0.000001	0.000000	0.000000
0.898573	11.861356	25.051500	-0.032984	-0.112818	2.618069	0.000000	-0.006382	0.000000	-0.000000	0.000001	0.000000	0.000000
1.339533	12.042618	24.873115	-0.379636	0.515816	2.631548	0.000000	0.067574	0.000000	0.000000	0.000001	0.000000	0.000000
1.780493	12.536063	24.148597	-0.743633	1.120980	2.677776	0.000000	0.142300	0.000000	0.000001	0.000001	0.000000	0.000000
2.221453	13.364236	22.910909	-1.141605	1.675141	2.757281	0.000000	0.218646	0.000000	0.000001	0.000001	0.000000	0.000000
2.662413	14.564974	21.216367	-1.591733	2.153085	2.870969	0.000000	0.297483	0.000000	0.000002	0.000001	0.000000	0.000000
3.108373	16.213891	19.117217	-2.118874	2.534196	3.021995	0.000000	0.380198	0.000000	0.000002	0.000001	0.000000	0.000000
3.657433	18.328340	16.759584	-1.709363	1.785093	3.205474	0.000000	0.287159	0.000000	0.000003	0.000001	0.000000	0.000000
4.206493	19.923731	15.150327	-1.179111	1.163139	3.336394	0.000000	0.189028	0.000000	0.000003	0.000001	0.000000	0.000000
4.755553	20.887372	14.174822	-0.565573	0.624032	3.412432	0.000000	0.087543	0.000000	0.000004	0.000001	0.000000	0.000000
5.304613	21.151197	13.763585	0.087915	0.129373	3.432241	0.000000	-0.015494	0.000000	0.000004	0.000001	0.000000	0.000000
5.603185	21.135918	13.671511	0.018521	0.143047	3.430292	0.000000	-0.006527	0.000000	0.000004	0.000001	0.000000	0.000000
5.936519	21.128829	13.584439	0.002745	0.118167	3.428116	0.000000	-0.006527	0.000000	0.000004	0.000001	0.000000	0.000000
6.269852	21.132258	13.513955	-0.013031	0.093286	3.425940	0.000000	-0.006527	0.000000	0.000005	0.000001	0.000000	0.000000
6.604435	21.146276	13.459887	-0.028867	0.068313	3.423756	0.000000	-0.006527	0.000000	0.000005	0.000001	0.000000	0.000000
6.901758	21.167626	13.425863	-0.098244	0.081198	3.421815	0.000000	0.002413	0.000000	0.000005	0.000001	0.000000	0.000000
7.450818	20.914736	13.597452	0.556105	-0.395557	3.394938	0.000000	-0.100172	0.000000	0.000006	0.000001	0.000000	0.000000
7.999878	19.960709	14.304882	1.171173	-0.900486	3.312141	0.000000	-0.200980	0.000000	0.000006	0.000000	0.000000	0.000000
8.548938	18.372933	15.598540	1.703516	-1.469554	3.174892	0.000000	-0.298223	0.000000	0.000006	0.000000	0.000000	0.000000
9.097998	16.263561	17.570571	2.115530	-2.143296	2.985627	0.000000	-0.390177	0.000000	0.000006	-0.000000	0.000000	0.000000
9.543958	14.617846	19.327762	1.587867	-1.780294	2.829931	0.000000	-0.308467	0.000000	0.000006	0.000000	0.000000	0.000000
9.984918	13.420812	20.707846	1.137039	-1.337522	2.711157	0.000000	-0.230753	0.000000	0.000006	0.000000	0.000000	0.000000
10.425878	12.597049	21.669012	0.738160	-0.833895	2.626040	0.000000	-0.155668	0.000000	0.000006	0.000000	0.000000	0.000000
10.866838	12.108922	22.167527	0.373005	-0.292325	2.573610	0.000000	-0.082356	0.000000	0.000006	0.000001	0.000000	0.000000
11.309048	11.933994	22.180189	0.054050	0.208095	2.553250	0.000000	-0.016243	0.000000	0.000007	0.000001	0.000000	0.000000
11.606371	11.909283	22.060604	0.029063	0.194110	2.548420	0.000000	-0.016243	0.000000	0.000007	0.000001	0.000000	0.000000
12.086371	11.900745	21.885096	-0.011275	0.171532	2.540624	0.000000	-0.016243	0.000000	0.000007	0.000001	0.000000	0.000000
12.566371	11.930932	21.731263	-0.051614	0.148954	2.532827	0.000000	-0.016243	0.000000	0.000008	0.000001	0.000000	0.000000
13.046371	11.999844	21.599105	-0.091953	0.126376	2.525030	0.000000	-0.016243	0.000000	0.000008	0.000001	0.000000	0.000000
13.526371	12.107481	21.488622	-0.132292	0.103798	2.517233	0.000000	-0.016243	0.000000	0.000009	0.000001	0.000000	0.000000
14.007621	12.254276	21.399611	-0.172735	0.081161	2.509416	0.000000	-0.016243	0.000000	0.000009	0.000001	0.000000	0.000000
14.304943	12.364421	21.355507	-0.167404	0.014810	2.504587	0.000000	-0.022384	0.000000	0.000009	0.000001	0.000000	0.000000
14.745903	12.670632	21.108703	-0.529649	0.542758	2.510349	0.000000	0.048547	0.000000	0.000009	0.000001	0.000000	0.000000
15.186863	13.305737	20.405443	-0.916092	1.046010	2.547482	0.000000	0.120032	0.000000	0.000010	0.000001	0.000000	0.000000
15.627823	14.298752	19.277726	-1.344389	1.501670	2.616407	0.000000	0.192883	0.000000	0.000011	0.000002	0.000000	0.000000
16.068783	15.695045	17.776862	-1.834108	1.889006	2.717910	0.000000	0.267931	0.000000	0.000011	0.000002	0.000000	0.000000
16.514743	17.582065	15.949636	-2.412379	2.191138	2.854842	0.000000	0.346493	0.000000	0.000012	0.000002	0.000000	0.000000
17.063803	20.005625	13.909336	-1.975506	1.546783	3.021352	0.000000	0.259146	0.000000	0.000013	0.000002	0.000000	0.000000
17.612863	21.869516	12.512327	-1.399093	1.012601	3.138569	0.000000	0.167202	0.000000	0.000014	0.000001	0.000000	0.000000
18.161923	23.042084	11.659102	-0.723855	0.550545	3.204413	0.000000	0.072292	0.000000	0.000015	0.000001	0.000000	0.000000
18.710983	23.440502	11.288889	0.002513	0.127702	3.217718	0.000000	-0.023900	0.000000	0.000015	0.000000	0.000000	0.000000
19.009556	23.479386	11.203114	-0.071507	0.130092	3.213091	0.000000	-0.015494	0.000000	0.000015	0.000000	0.000000	0.000000
19.342889	23.531814	11.126471	-0.085776	0.099835	3.207927	0.000000	-0.015494	0.000000	0.000015	0.000000	0.000000	0.000000
19.676223	23.593755	11.070000	-0.100046	0.069578	3.202762	0.000000	-0.015494	0.000000	0.000015	0.000000	0.000000	0.000000
20.010806	23.665787	11.033466	-0.231622	0.093874	3.197598	0.000000	0.000349	0.000000	0.000015	0.000000	0.000000	0.000000
20.308129	23.807456	10.985727	-0.307056	0.095389	3.197701	0.000000	0.008703	0.000000	0.000015	0.000000	0.000000	0.000000
20.857189	23.734023	11.103215	0.440008	-0.310634	3.176254	0.000000	-0.086709	0.000000	0.000016	-0.000000	0.000000	0.000000
21.406249	22.852505	11.676026	1.155991	-0.738782	3.102767	0.000000	-0.180582	0.000000	0.000015	-0.000001	0.000000	0.000000
21.955309	21.225169	12.744960	1.790321	-1.219552	2.978542	0.000000	-0.271253	0.000000	0.000015	-0.000001	0.000000	0.000000
22.504369	18.966962	14.386154	2.298192	-1.787189	2.805784	0.000000	-0.357112	0.000000	0.000014	-0.000002	0.000000	0.000000
22.950329	17.187310	15.859613	1.706503	-1.502889	2.663823	0.000000	-0.279888	0.000000	0.000014	-0.000001	0.000000	0.000000
23.391289	15.911611	17.034370	1.197475	-1.151063	2.556730	0.000000	-0.206306	0.000000	0.000013	-0.000001	0.000000	0.000000
23.832249	15.059103	17.874478	0.743157	-0.746866	2.481534	0.000000	-0.135074	0.000000	0.000013	-0.000000	0.000000	0.000000
24.273209	14.590838	18.341712	0.322792	-0.308686	2.437380	0.000000	-0.065381	0.000000	0.000013	-0.000000	0.000000	0.000000
24.715418	14.485541	18.414568	-0.047394	0.098317	2.423761	0.000000	-0.002375	0.000000	0.000013	0.000000	0.000000	0.000000
25.012741	14.519839	18.360952	-0.067965	0.082014	2.423055	0.000000	-0.002375	0.000000	0.000013	0.000000	0.000000	0.000000
25.346075	14.572837	18.312367	-0.091028	0.063738	2.422264	0.000000	-0.002375	0.000000	0.000013	0.000000	0.000000	0.000000
25.679408	14.641211	18.275968	-0.114091	0.045461	2.421472	0.000000	-0.002375	0.000000	0.000013	0.000000	0.000000	0.000000
26.013991	14.725004	18.252055	-0.017782	-0.120953	2.420653	0.000000	-0.022013	0.000000	0.000013	0.000000	0.000000	0.000000
26.311314	14.741583	18.328893	-0.001834	-0.182424	2.414108	0.000000	-0.027932	0.000000	0.000013	0.000000	0.000000	0.000000
26.752274	14.924829	18.290986	-0.415303	0.268061	2.416905	0.000000	0.040629	0.000000	0.000013	0.000000	0.000000	0.000000
27.193234	15.479678	17.859669	-0.847745	0.706349	2.450007	0.000000	0.109652	0.000000	0.000013	0.000001	0.000000	0.000000
27.634194	16.431479	17.054566	-1.318919	1.112499	2.513792	0.000000	0.179924	0.000000	0.000014	0.000001	0.000000	0.000000
28.075154	17.823719	15.912308	-1.850350	1.468031	2.608985	0.000000	0.252245	0.000000	0.000014	0.000001	0.000000	0.000000
28.521114	19.744193	14.467662	-2.471284	1.757682	2.738276	0.000000	0.327883	0.000000	0.000015	0.000002	0.000000	0.000000
29.070174	22.185130	12.858015	-1.948064	1.191264	2.895632	0.000000	0.244461	0.000000	0.000016	0.000001	0.000000	0.000000
29.619234	23.972086	11.820397	-1.287242	0.709698	3.005925	0.000000	0.156703	0.000000	0.000016	0.000001	0.000000	0.000000
30.168294	24.978839	11.280901	-0.535496	0.278683	3.067199	0.000000	0.066165	0.000000	0.000017	0.000000	0.000000	0.000000
30.717354	25.134276	11.201099	0.254075	-0.132483	3.078366	0.000000	-0.025547	0.000000	0.000017	-0.000000	0.000000	0.000000
31.015927	25.025439	11.270781	0.176112	-0.130160	3.073140	0.000000	-0.017505	0.000000	0.000017	-0.000000	0.000000	0.000000
31.349260	24.912608	11.367580	0.162379	-0.160237	3.067305	0.000000	-0.017505	0.000000	0.000017	-0.000000	0.000000	0.000000
31.682593	24.808933	11.484429	0.148646	-0.190313	3.061470	0.000000	-0.017505	0.000000	0.000016	-0.000000	0.000000	0.000000
32.017177	24.714076	11.621881	0.134862	-0.220501	3.055614	0.000000	-0.017505	0.000000	0.000016	-0.000000	0.000000	0.000000
32.314499	24.637523	11.760977	0.058248	-0.216603	3.050409	0.000000	-0.009536	0.000000	0.000016	-0.000000	0.000000	0.000000
32.863559	24.151451	12.238069	0.821790	-0.657451	3.020285	0.000000	-0.100034	0.000000	0.000016	-0.000001	0.000000	0.000000
33.412619	22.853987	13.221985	1.527285	-1.145127	2.940886	0.000000	-0.188758	0.000000	0.000015	-0.000001	0.000000	0.000000
33.961679	20.836776	14.782807	2.124900	-1.714369	2.813622	0.000000	-0.274134	0.000000	0.000015	-0.000002	0.000000	0.000000
34.510739	18.242305	17.031710	2.572423	-2.405721	2.640749	0.000000	-0.354648	0.000000	0.000014	-0.000002	0.000000	0.000000
34.956699	16.225019	19.043258	1.967252	-2.086048	2.498936	0.000000	-0.281703	0.000000	0.000013	-0.000002	0.000000	0.000000
35.397659	14.720779	20.706829	1.456971	-1.672208	2.390101	0.000000	-0.212395	0.000000	0.000012	-0.000002	0.000000	0.000000
35.838619	13.635625	21.970354	1.013254	-1.182283	2.311267	0.000000	-0.145505	0.000000	0.000011	-0.000001	0.000000	0.000000
36.279579	12.919979	22.776343	0.615831	-0.638566	2.261536	0.000000	-0.080273	0.000000	0.000011	-0.000001	0.000000	0.000000
36.721789	12.540450	23.088429	0.277187	-0.122462	2.240313	0.000000	-0.021448	0.000000	0.000010	-0.000001	0.000000	0.000000
37.019112	12.383213	23.165137	0.251656	-0.135533	2.233936	0.000000	-0.021448	0.000000	0.000010	-0.000001	0.000000	0.000000
37.352445	12.224983	23.260377	0.223033	-0.150186	2.226787	0.000000	-0.021448	0.000000	0.000010	-0.000001	0.000000	0.000000
37.685779	12.085836	23.365385	0.194410	-0.164840	2.219638	0.000000	-0.021448	0.000000	0.000010	-0.000001	0.000000	0.000000
38.020362	11.965355	23.480612	0.165680	-0.179549	2.212462	0.000000	-0.021448	0.000000	0.000010	-0.000001	0.000000	0.000000
38.317684	11.874425	23.591266	0.169266	-0.250467	2.206085	0.000000	-0.026858	0.000000	0.000009	-0.000001	0.000000	0.000000
38.758644	11.876547	23.550860	-0.174096	0.341751	2.208172	0.000000	0.036331	0.000000	0.000009	-0.000000	0.000000	0.000000
39.199604	12.183836	22.993052	-0.525412	0.918420	2.238187	0.000000	0.099933	0.000000	0.000009	-0.000000	0.000000	0.000000
39.640564	12.810332	21.943222	-0.900733	1.453302	2.296472	0.000000	0.164674	0.000000	0.000009	-0.000000	0.000000	0.000000
40.081524	13.784658	20.449137	-1.317206	1.922060	2.383691	0.000000	0.231290	0.000000	0.000009	0.000000	0.000000	0.000000
40.527484	15.168902	18.556206	-1.797684	2.304648	2.502310	0.000000	0.300946	0.000000	0.000009	0.000000	0.000000	0.000000
41.076544	16.935401	16.429045	-1.400586	1.592405	2.647013	0.000000	0.225374	0.000000	0.000009	0.000000	0.000000	0.000000
41.625604	18.208600	15.017512	-0.904557	0.993587	2.749063	0.000000	0.145805	0.000000	0.000009	-0.000000	0.000000	0.000000
42.174664	18.898566	14.221066	-0.344635	0.465539	2.806649	0.000000	0.063649	0.000000	0.000009	-0.000000	0.000000	0.000000
42.723724	18.956563	13.982977	0.239630	-0.029350	2.818751	0.000000	-0.019635	0.000000	0.000009	-0.000001	0.000000	0.000000
43.022297	18.847916	13.985064	0.173784	-0.014171	2.815087	0.000000	-0.012271	0.000000	0.000008	-0.000001	0.000000	0.000000
43.502297	18.693676	14.015146	0.147548	-0.048500	2.809197	0.000000	-0.012271	0.000000	0.000008	-0.000001	0.000000	0.000000
43.982297	18.564623	14.078184	0.121312	-0.082829	2.803308	0.000000	-0.012271	0.000000	0.000008	-0.000001	0.000000	0.000000
44.462297	18.460757	14.174178	0.095076	-0.117159	2.797418	0.000000	-0.012271	0.000000	0.000007	-0.000001	0.000000	0.000000
44.942297	18.382077	14.303128	0.068840	-0.151488	2.791528	0.000000	-0.012271	0.000000	0.000007	-0.000001	0.000000	0.000000
45.423547	18.328705	14.465320	-0.048275	-0.114236	2.785641	0.000000	0.001531	0.000000	0.000007	-0.000001	0.000000	0.000000
45.720870	18.362245	14.539441	-0.112509	-0.097072	2.786096	0.000000	0.008810	0.000000	0.000006	-0.000001	0.000000	0.000000
46.269930	18.176608	14.927256	0.448609	-0.613422	2.768359	0.000000	-0.073325	0.000000	0.000006	-0.000001	0.000000	0.000000
46.818990	17.388628	15.902606	0.978039	-1.173464	2.705816	0.000000	-0.154160	0.000000	0.000006	-0.000001	0.000000	0.000000
47.368050	16.053965	17.534964	1.438385	-1.817090	2.599576	0.000000	-0.232260	0.000000	0.000005	-0.000001	0.000000	0.000000
47.917110	14.266893	19.940599	1.797131	-2.590143	2.451525	0.000000	-0.306240	0.000000	0.000004	-0.000001	0.000000	0.000000
48.363070	12.876184	22.079433	1.332377	-2.185716	2.330248	0.000000	-0.237937	0.000000	0.000004	-0.000001	0.000000	0.000000
48.804030	11.881341	23.791949	0.932265	-1.683114	2.239788	0.000000	-0.172740	0.000000	0.000003	-0.000001	0.000000	0.000000
49.244990	11.219322	25.025620	0.574745	-1.103932	2.177617	0.000000	-0.109511	0.000000	0.000003	-0.000001	0.000000	0.000000
49.685950	10.859879	25.724313	0.243484	-0.474521	2.143027	0.000000	-0.047529	0.000000	0.000002	-0.000001	0.000000	0.000000
50.128160	10.786717	25.855957	-0.050318	0.113025	2.135633	0.000000	0.008675	0.000000	0.000002	-0.000001	0.000000	0.000000
50.425482	10.824855	25.792210	-0.077952	0.101379	2.138213	0.000000	0.008675	0.000000	0.000001	-0.000001	0.000000	0.000000
50.758816	10.887149	25.728977	-0.108932	0.088322	2.141105	0.000000	0.008675	0.000000	0.000001	-0.000001	0.000000	0.000000
51.092149	10.970098	25.674448	-0.139913	0.075265	2.143996	0.000000	0.008675	0.000000	0.000001	-0.000001	0.000000	0.000000
51.426732	11.073902	25.628987	-0.081171	-0.145755	2.146877	0.000000	-0.008742	0.000000	0.000000	-0.000001	0.000000	0.000000
51.724055	11.130206	25.719182	-0.080902	-0.220674	2.144279	0.000000	-0.014000	0.000000	-0.000000	-0.000001	0.000000	0.000000
52.165015	11.346875	25.627668	-0.412320	0.427418	2.151694	0.000000	0.047663	0.000000	-0.000000	-0.000001	0.000000	0.000000
52.605975	11.862999	24.971013	-0.762576	1.056064	2.186394	0.000000	0.109870	0.000000	-0.000001	-0.000001	0.000000	0.000000
53.046935	12.702158	23.779094	-1.147672	1.636659	2.248775	0.000000	0.173328	0.000000	-0.000001	-0.000001	0.000000	0.000000
53.487895	13.902691	22.106143	-1.585201	2.142787	2.339547	0.000000	0.238761	0.000000	-0.000002	-0.000001	0.000000	0.000000
53.933855	15.540026	20.003265	-2.099384	2.552758	2.461247	0.000000	0.307311	0.000000	-0.000002	-0.000001	0.000000	0.000000
54.482915	17.648039	17.637002	-1.717202	1.782342	2.609800	0.000000	0.233008	0.000000	-0.000003	-0.000001	0.000000	0.000000
55.031975	19.266875	16.042490	-1.213724	1.138878	2.716359	0.000000	0.154571	0.000000	-0.000004	-0.000001	0.000000	0.000000
55.581035	20.282190	15.106152	-0.624516	0.576534	2.779035	0.000000	0.073393	0.000000	-0.000004	-0.000001	0.000000	0.000000
56.130095	20.622264	14.761297	0.008805	0.055256	2.796715	0.000000	-0.009087	0.000000	-0.000005	-0.000001	0.000000	0.000000
56.428668	20.653515	14.711362	-0.059586	0.073421	2.796184	0.000000	-0.001780	0.000000	-0.000005	-0.000001	0.000000	0.000000
56.762001	20.698638	14.670008	-0.075783	0.050641	2.795591	0.000000	-0.001780	0.000000	-0.000005	-0.000001	0.000000	0.000000
57.095334	20.754559	14.643841	-0.091980	0.027860	2.794998	0.000000	-0.001780	0.000000	-0.000005	-0.000001	0.000000	0.000000
57.429918	20.821548	14.632848	-0.108237	0.004995	2.794403	0.000000	-0.001780	0.000000	-0.000005	-0.000001	0.000000	0.000000
57.727240	20.890206	14.635920	-0.177269	0.022918	2.793874	0.000000	0.005520	0.000000	-0.000006	-0.000001	0.000000	0.000000
58.276300	20.728471	14.891806	0.470092	-0.491714	2.774267	0.000000	-0.076836	0.000000	-0.000006	-0.000001	0.000000	0.000000
58.825360	19.869963	15.728621	1.084248	-1.041369	2.709749	0.000000	-0.157830	0.000000	-0.000006	-0.000000	0.000000	0.000000
59.374420	18.375323	17.205969	1.621818	-1.665199	2.601465	0.000000	-0.236025	0.000000	-0.000006	-0.000000	0.000000	0.000000
59.923480	16.350125	19.429078	2.044831	-2.407637	2.451335	0.000000	-0.310033	0.000000	-0.000006	0.000000	0.000000	0.000000
60.369440	14.765009	21.405006	1.522145	-2.004390	2.328362	0.000000	-0.241756	0.000000	-0.000006	-0.000000	0.000000	0.000000
60.810400	13.624888	22.961215	1.073208	-1.511319	2.236204	0.000000	-0.176630	0.000000	-0.000007	-0.000000	0.000000	0.000000
61.251360	12.857658	24.050476	0.673302	-0.949485	2.172293	0.000000	-0.113516	0.000000	-0.000007	-0.000000	0.000000	0.000000
61.692320	12.428267	24.623229	0.304157	-0.344449	2.135903	0.000000	-0.051694	0.000000	-0.000007	-0.000001	0.000000	0.000000
62.134530	12.317149	24.652873	-0.020986	0.215744	2.126623	0.000000	0.004323	0.000000	-0.000007	-0.000001	0.000000	0.000000
62.431853	12.336808	24.528335	-0.045135	0.203123	2.127909	0.000000	0.004323	0.000000	-0.000007	-0.000001	0.000000	0.000000
62.765186	12.375923	24.397636	-0.072210	0.188972	2.129350	0.000000	0.004323	0.000000	-0.000008	-0.000001	0.000000	0.000000
63.098520	12.433088	24.276372	-0.099284	0.174822	2.130791	0.000000	0.004323	0.000000	-0.000008	-0.000001	0.000000	0.000000
63.433103	12.508619	24.164139	-0.126460	0.160618	2.132238	0.000000	0.004323	0.000000	-0.000008	-0.000001	0.000000	0.000000
63.730426	12.590998	24.072381	-0.119731	0.088959	2.133524	0.000000	-0.000909	0.000000	-0.000008	-0.000001	0.000000	0.000000
64.171386	12.856929	23.728814	-0.485630	0.687210	2.146662	0.000000	0.060551	0.000000	-0.000009	-0.000001	0.000000	0.000000
64.612346	13.454080	22.869463	-0.873716	1.254193	2.187027	0.000000	0.122701	0.000000	-0.000009	-0.000001	0.000000	0.000000
65.053306	14.409735	21.533428	-1.301720	1.764111	2.255080	0.000000	0.186249	0.000000	-0.000010	-0.000001	0.000000	0.000000
65.494266	15.767553	19.781497	-1.789196	2.193764	2.351596	0.000000	0.251918	0.000000	-0.000011	-0.000002	0.000000	0.000000
65.940226	17.612733	17.668590	-2.363107	2.524356	2.479246	0.000000	0.320858	0.000000	-0.000011	-0.000002	0.000000	0.000000
66.489286	19.978075	15.304894	-1.919379	1.806042	2.635055	0.000000	0.245853	0.000000	-0.000012	-0.000002	0.000000	0.000000
67.038346	21.778367	13.655147	-1.340075	1.216369	2.748423	0.000000	0.166488	0.000000	-0.000013	-0.000001	0.000000	0.000000
67.587406	22.886446	12.601841	-0.666116	0.713335	2.817338	0.000000	0.084170	0.000000	-0.000014	-0.000001	0.000000	0.000000
68.136466	23.224041	12.069953	0.054894	0.261110	2.840578	0.000000	0.000359	0.000000	-0.000014	-0.000000	0.000000	0.000000
68.435038	23.231339	11.903216	-0.018650	0.265795	2.842902	0.000000	0.007782	0.000000	-0.000014	-0.000000	0.000000	0.000000
68.768372	23.248557	11.736014	-0.033003	0.235813	2.845496	0.000000	0.007782	0.000000	-0.000014	-0.000000	0.000000	0.000000
69.101705	23.275344	11.588799	-0.047357	0.205831	2.848090	0.000000	0.007782	0.000000	-0.000014	-0.000000	0.000000	0.000000
69.436288	23.311853	11.461133	-0.061764	0.175736	2.850693	0.000000	0.007782	0.000000	-0.000015	-0.000000	0.000000	0.000000
69.733611	23.352388	11.364584	-0.135590	0.178690	2.853007	0.000000	0.015237	0.000000	-0.000015	-0.000000	0.000000	0.000000
70.282671	23.100218	11.395942	0.592146	-0.236140	2.838195	0.000000	-0.069114	0.000000	-0.000015	0.000000	0.000000	0.000000
