#ParticleID	Turn	x[m]	xp	y[m]	yp	z[m]	dE[GeV]# s	beta_x	beta_y	alpha_x	alpha_y	D_x	D_y	D_px	D_py	orbit_x	orbit_px	orbit_y	orbit_py
0.300000	11.809486	25.036509	-0.010554	-0.027090	2.618102	0.000000	0.000017	0.000000	-0.000001	0.000001	0.000000	0.000000
0.601250	11.823530	25.056459	-0.036066	-0.039132	2.618106	0.000000	0.000017	0.000000	-0.000000	0.000001	0.000000	0.000000
0.898573	11.852463	25.083262	-0.032180	-0.112527	2.618111	0.000000	-0.006404	0.000000	0.000000	0.000001	0.000000	0.000000
1.339533	12.032920	24.904250	-0.378609	0.516940	2.631580	0.000000	0.067553	0.000000	0.000001	0.000001	0.000000	0.000000
1.780493	12.525344	24.178390	-0.742335	1.122887	2.677799	0.000000	0.142280	0.000000	0.000002	0.000001	0.000000	0.000000
2.221453	13.352231	22.938707	-1.139977	1.677743	2.757296	0.000000	0.218627	0.000000	0.000002	0.000002	0.000000	0.000000
2.662413	14.551362	21.241605	-1.589701	2.156263	2.870975	0.000000	0.297464	0.000000	0.000003	0.000002	0.000000	0.000000
3.108373	16.198251	19.139415	-2.116342	2.537808	3.021992	0.000000	0.380179	0.000000	0.000004	0.000002	0.000000	0.000000
3.657433	18.310128	16.778318	-1.707238	1.787828	3.205461	0.000000	0.287141	0.000000	0.000005	0.000002	0.000000	0.000000
4.206493	19.903479	15.166448	-1.177544	1.165191	3.336370	0.000000	0.189010	0.000000	0.000005	0.000001	0.000000	0.000000
4.755553	20.865758	14.188995	-0.564674	0.625548	3.412399	0.000000	0.087526	0.000000	0.000006	0.000001	0.000000	0.000000
5.304613	21.128994	13.776336	0.088082	0.130461	3.432198	0.000000	-0.015510	0.000000	0.000007	0.000001	0.000000	0.000000
5.603185	21.113584	13.683589	0.018733	0.144180	3.430244	0.000000	-0.006543	0.000000	0.000007	0.000001	0.000000	0.000000
5.936519	21.106360	13.595758	0.002940	0.119314	3.428062	0.000000	-0.006543	0.000000	0.000007	0.000001	0.000000	0.000000
6.269852	21.109664	13.524504	-0.012853	0.094447	3.425881	0.000000	-0.006543	0.000000	0.000008	0.000001	0.000000	0.000000
6.604435	21.123569	13.469654	-0.028706	0.069488	3.423692	0.000000	-0.006543	0.000000	0.000008	0.000001	0.000000	0.000000
6.901758	21.144827	13.434928	-0.098036	0.082408	3.421746	0.000000	0.002397	0.000000	0.000008	0.000001	0.000000	0.000000
7.450818	20.892130	13.605323	0.555549	-0.394579	3.394860	0.000000	-0.100186	0.000000	0.000009	0.000001	0.000000	0.000000
7.999878	19.939117	14.311773	1.169894	-0.899671	3.312055	0.000000	-0.200992	0.000000	0.000009	0.000000	0.000000	0.000000
8.548938	18.353105	15.604600	1.701603	-1.468845	3.174801	0.000000	-0.298232	0.000000	0.000009	0.000000	0.000000	0.000000
9.097998	16.246121	17.575886	2.113119	-2.142641	2.985532	0.000000	-0.390183	0.000000	0.000009	-0.000000	0.000000	0.000000
9.543958	14.602317	19.332385	1.585976	-1.779403	2.829833	0.000000	-0.308475	0.000000	0.000009	0.000000	0.000000	0.000000
9.984918	13.406757	20.711595	1.135577	-1.336439	2.711055	0.000000	-0.230764	0.000000	0.000009	0.000000	0.000000	0.000000
10.425878	12.584119	21.671738	0.737060	-0.832667	2.625932	0.000000	-0.155681	0.000000	0.000010	0.000001	0.000000	0.000000
10.866838	12.096821	22.169128	0.372217	-0.291010	2.573496	0.000000	-0.082372	0.000000	0.000010	0.000001	0.000000	0.000000
11.309048	11.922465	22.180610	0.053510	0.209439	2.553128	0.000000	-0.016261	0.000000	0.000010	0.000001	0.000000	0.000000
11.606371	11.898081	22.060228	0.028500	0.195446	2.548293	0.000000	-0.016261	0.000000	0.000011	0.000001	0.000000	0.000000
12.086371	11.890101	21.883443	-0.011875	0.172857	2.540487	0.000000	-0.016261	0.000000	0.000011	0.000001	0.000000	0.000000
12.566371	11.920882	21.728344	-0.052251	0.150267	2.532681	0.000000	-0.016261	0.000000	0.000012	0.000001	0.000000	0.000000
13.046371	11.990422	21.594931	-0.092626	0.127677	2.524875	0.000000	-0.016261	0.000000	0.000012	0.000001	0.000000	0.000000
13.526371	12.098723	21.483204	-0.133001	0.105087	2.517069	0.000000	-0.016261	0.000000	0.000013	0.000001	0.000000	0.000000
14.007621	12.246219	21.392957	-0.173482	0.082439	2.509242	0.000000	-0.016261	0.000000	0.000013	0.000001	0.000000	0.000000
14.304943	12.356815	21.348095	-0.168193	0.016101	2.504407	0.000000	-0.022402	0.000000	0.000014	0.000001	0.000000	0.000000
14.745903	12.663654	21.100249	-0.530291	0.543821	2.510161	0.000000	0.048524	0.000000	0.000014	0.000001	0.000000	0.000000
15.186863	13.299271	20.396170	-0.916616	1.046798	2.547282	0.000000	0.120004	0.000000	0.000015	0.000002	0.000000	0.000000
15.627823	14.292705	19.267894	-1.344819	1.502146	2.616193	0.000000	0.192850	0.000000	0.000016	0.000002	0.000000	0.000000
16.068783	15.689343	17.766757	-1.834463	1.889147	2.717680	0.000000	0.267892	0.000000	0.000017	0.000003	0.000000	0.000000
16.514743	17.576653	15.939557	-2.412676	2.190938	2.854592	0.000000	0.346448	0.000000	0.000018	0.000003	0.000000	0.000000
17.063803	20.000691	13.899353	-1.976074	1.546806	3.021080	0.000000	0.259109	0.000000	0.000020	0.000002	0.000000	0.000000
17.612863	21.865338	12.502194	-1.399892	1.012851	3.138278	0.000000	0.167174	0.000000	0.000021	0.000002	0.000000	0.000000
18.161923	23.038885	11.648564	-0.724829	0.551039	3.204110	0.000000	0.072274	0.000000	0.000022	0.000001	0.000000	0.000000
18.710983	23.438439	11.277659	0.001432	0.128476	3.217407	0.000000	-0.023908	0.000000	0.000022	0.000000	0.000000	0.000000
19.009556	23.477964	11.191450	-0.072581	0.130801	3.212778	0.000000	-0.015503	0.000000	0.000022	0.000000	0.000000	0.000000
19.342889	23.531108	11.114347	-0.086853	0.100507	3.207610	0.000000	-0.015503	0.000000	0.000022	0.000000	0.000000	0.000000
19.676223	23.593768	11.057440	-0.101126	0.070213	3.202442	0.000000	-0.015503	0.000000	0.000023	0.000000	0.000000	0.000000
20.010806	23.666524	11.020493	-0.232709	0.094407	3.197275	0.000000	0.000338	0.000000	0.000023	0.000001	0.000000	0.000000
20.308129	23.808841	10.972447	-0.308148	0.095851	3.197375	0.000000	0.008690	0.000000	0.000023	0.000001	0.000000	0.000000
20.857189	23.736576	11.089222	0.438984	-0.309788	3.175924	0.000000	-0.086711	0.000000	0.000023	-0.000000	0.000000	0.000000
21.406249	22.856111	11.660868	1.155109	-0.737493	3.102439	0.000000	-0.180573	0.000000	0.000023	-0.000001	0.000000	0.000000
21.955309	21.229636	12.728102	1.789643	-1.217728	2.978222	0.000000	-0.271233	0.000000	0.000022	-0.000002	0.000000	0.000000
22.504369	18.972038	14.366941	2.297765	-1.784698	2.805477	0.000000	-0.357082	0.000000	0.000021	-0.000002	0.000000	0.000000
22.950329	17.192790	15.838372	1.706019	-1.500851	2.663529	0.000000	-0.279866	0.000000	0.000020	-0.000002	0.000000	0.000000
23.391289	15.917550	17.011567	1.196913	-1.149570	2.556443	0.000000	-0.206292	0.000000	0.000020	-0.000001	0.000000	0.000000
23.832249	15.065582	17.850623	0.742491	-0.745984	2.481252	0.000000	-0.135067	0.000000	0.000019	-0.000001	0.000000	0.000000
24.273209	14.597962	18.317365	0.321991	-0.308456	2.437100	0.000000	-0.065381	0.000000	0.000019	-0.000000	0.000000	0.000000
24.715418	14.493446	18.390311	-0.048349	0.097947	2.423479	0.000000	-0.002381	0.000000	0.000019	0.000000	0.000000	0.000000
25.012741	14.528310	18.336920	-0.068911	0.081624	2.422771	0.000000	-0.002381	0.000000	0.000019	0.000000	0.000000	0.000000
25.346075	14.581935	18.288604	-0.091964	0.063325	2.421978	0.000000	-0.002381	0.000000	0.000019	0.000000	0.000000	0.000000
25.679408	14.650929	18.252487	-0.115017	0.045026	2.421184	0.000000	-0.002381	0.000000	0.000019	0.000000	0.000000	0.000000
26.013991	14.735337	18.228873	-0.018613	-0.121224	2.420363	0.000000	-0.022017	0.000000	0.000019	0.000000	0.000000	0.000000
26.311314	14.752406	18.305879	-0.002627	-0.182657	2.413816	0.000000	-0.027935	0.000000	0.000019	-0.000000	0.000000	0.000000
26.752274	14.936470	18.268453	-0.416373	0.267208	2.416610	0.000000	0.040618	0.000000	0.000019	0.000000	0.000000	0.000000
27.193234	15.492403	17.838147	-0.849142	0.704916	2.449706	0.000000	0.109634	0.000000	0.000020	0.000001	0.000000	0.000000
27.634194	16.445604	17.034541	-1.320706	1.110551	2.513480	0.000000	0.179898	0.000000	0.000020	0.000001	0.000000	0.000000
28.075154	17.839621	15.894196	-1.852609	1.465657	2.608660	0.000000	0.252211	0.000000	0.000021	0.000002	0.000000	0.000000
28.521114	19.762361	14.451820	-2.474123	1.754988	2.737933	0.000000	0.327840	0.000000	0.000022	0.000003	0.000000	0.000000
29.070174	22.206173	12.844779	-1.950428	1.189183	2.895269	0.000000	0.244429	0.000000	0.000023	0.000002	0.000000	0.000000
29.619234	23.995386	11.809180	-1.288964	0.708081	3.005548	0.000000	0.156683	0.000000	0.000024	0.000001	0.000000	0.000000
30.168294	25.003619	11.271258	-0.536454	0.277415	3.066814	0.000000	0.066157	0.000000	0.000024	0.000000	0.000000	0.000000
30.717354	25.159654	11.192700	0.253949	-0.133493	3.077981	0.000000	-0.025542	0.000000	0.000024	-0.000000	0.000000	0.000000
31.015927	25.050926	11.263006	0.175937	-0.131220	3.072755	0.000000	-0.017501	0.000000	0.000024	-0.000000	0.000000	0.000000
31.349260	24.938207	11.360521	0.162219	-0.161325	3.066922	0.000000	-0.017501	0.000000	0.000024	-0.000000	0.000000	0.000000
31.682593	24.834633	11.478105	0.148501	-0.191430	3.061088	0.000000	-0.017501	0.000000	0.000024	-0.000000	0.000000	0.000000
32.017177	24.739868	11.616314	0.134731	-0.221647	3.055233	0.000000	-0.017501	0.000000	0.000024	-0.000000	0.000000	0.000000
32.314499	24.663389	11.756100	0.058067	-0.217790	3.050030	0.000000	-0.009534	0.000000	0.000024	-0.000000	0.000000	0.000000
32.863559	24.177044	12.234448	0.822467	-0.658566	3.019910	0.000000	-0.100020	0.000000	0.000023	-0.000001	0.000000	0.000000
33.412619	22.878385	13.219585	1.528771	-1.146249	2.940523	0.000000	-0.188732	0.000000	0.000022	-0.000002	0.000000	0.000000
33.961679	20.859143	14.781680	2.127090	-1.715578	2.813276	0.000000	-0.274097	0.000000	0.000021	-0.000003	0.000000	0.000000
34.510739	18.261949	17.031997	2.575162	-2.407104	2.640427	0.000000	-0.354600	0.000000	0.000020	-0.000003	0.000000	0.000000
34.956699	16.242492	19.044843	1.969396	-2.087561	2.498635	0.000000	-0.281663	0.000000	0.000018	-0.000003	0.000000	0.000000
35.397659	14.736586	20.709780	1.458622	-1.673781	2.389817	0.000000	-0.212362	0.000000	0.000017	-0.000002	0.000000	0.000000
35.838619	13.650164	21.974692	1.014488	-1.183844	2.310996	0.000000	-0.145479	0.000000	0.000016	-0.000002	0.000000	0.000000
36.279579	12.933592	22.782027	0.616704	-0.640044	2.261274	0.000000	-0.080254	0.000000	0.000016	-0.000001	0.000000	0.000000
36.721789	12.553436	23.095359	0.277769	-0.123804	2.240059	0.000000	-0.021435	0.000000	0.000015	-0.000001	0.000000	0.000000
37.019112	12.395847	23.172865	0.252257	-0.136875	2.233686	0.000000	-0.021435	0.000000	0.000015	-0.000001	0.000000	0.000000
37.352445	12.237210	23.269000	0.223655	-0.151530	2.226541	0.000000	-0.021435	0.000000	0.000014	-0.000001	0.000000	0.000000
37.685779	12.097640	23.374905	0.195054	-0.166184	2.219397	0.000000	-0.021435	0.000000	0.000014	-0.000001	0.000000	0.000000
38.020362	11.976722	23.491031	0.166344	-0.180893	2.212225	0.000000	-0.021435	0.000000	0.000014	-0.000001	0.000000	0.000000
38.317684	11.885392	23.602484	0.169975	-0.251837	2.205852	0.000000	-0.026844	0.000000	0.000013	-0.000001	0.000000	0.000000
38.758644	11.886997	23.563151	-0.173629	0.340697	2.207944	0.000000	0.036339	0.000000	0.000013	-0.000001	0.000000	0.000000
39.199604	12.193973	23.006114	-0.525167	0.917731	2.237962	0.000000	0.099936	0.000000	0.000013	-0.000000	0.000000	0.000000
39.640564	12.820346	21.956720	-0.900698	1.453008	2.296247	0.000000	0.164670	0.000000	0.000012	-0.000000	0.000000	0.000000
40.081524	13.794733	20.462714	-1.317379	1.922174	2.383463	0.000000	0.231281	0.000000	0.000012	0.000000	0.000000	0.000000
40.527484	15.179227	18.569498	-1.798075	2.305169	2.502076	0.000000	0.300930	0.000000	0.000013	0.000001	0.000000	0.000000
41.076544	16.945939	16.441961	-1.400580	1.592575	2.646773	0.000000	0.225366	0.000000	0.000013	0.000000	0.000000	0.000000
41.625604	18.218913	15.030429	-0.904155	0.993416	2.748821	0.000000	0.145805	0.000000	0.000013	-0.000000	0.000000	0.000000
42.174664	18.908230	14.234361	-0.343865	0.465017	2.806409	0.000000	0.063657	0.000000	0.000013	-0.000001	0.000000	0.000000
42.723724	18.965203	13.997054	0.240714	-0.030261	2.818517	0.000000	-0.019620	0.000000	0.000012	-0.000001	0.000000	0.000000
43.022297	18.855921	13.999657	0.174848	-0.015025	2.814858	0.000000	-0.012256	0.000000	0.000012	-0.000001	0.000000	0.000000
43.502297	18.700659	14.030542	0.148614	-0.049319	2.808976	0.000000	-0.012256	0.000000	0.000011	-0.000001	0.000000	0.000000
43.982297	18.570583	14.094350	0.122379	-0.083613	2.803093	0.000000	-0.012256	0.000000	0.000011	-0.000001	0.000000	0.000000
44.462297	18.465691	14.191080	0.096145	-0.117908	2.797211	0.000000	-0.012256	0.000000	0.000010	-0.000001	0.000000	0.000000
44.942297	18.385985	14.320732	0.069910	-0.152202	2.791328	0.000000	-0.012256	0.000000	0.000010	-0.000001	0.000000	0.000000
45.423547	18.331581	14.483594	-0.047217	-0.114825	2.785448	0.000000	0.001545	0.000000	0.000009	-0.000001	0.000000	0.000000
45.720870	18.364492	14.558058	-0.111452	-0.097589	2.785907	0.000000	0.008823	0.000000	0.000009	-0.000001	0.000000	0.000000
46.269930	18.177661	14.946754	0.449711	-0.614519	2.768179	0.000000	-0.073306	0.000000	0.000008	-0.000001	0.000000	0.000000
46.818990	17.388481	15.923662	0.979109	-1.175220	2.705649	0.000000	-0.154135	0.000000	0.000007	-0.000002	0.000000	0.000000
47.368050	16.052696	17.558364	1.439347	-1.819629	2.599424	0.000000	-0.232230	0.000000	0.000006	-0.000002	0.000000	0.000000
47.917110	14.264659	19.967298	1.797917	-2.593646	2.451391	0.000000	-0.306206	0.000000	0.000005	-0.000002	0.000000	0.000000
48.363070	12.873268	22.109003	1.333129	-2.188622	2.330129	0.000000	-0.237905	0.000000	0.000005	-0.000002	0.000000	0.000000
48.804030	11.877763	23.823770	0.933019	-1.685293	2.239683	0.000000	-0.172712	0.000000	0.000004	-0.000002	0.000000	0.000000
49.244990	11.215065	25.059003	0.575536	-1.105284	2.177524	0.000000	-0.109485	0.000000	0.000003	-0.000002	0.000000	0.000000
49.685950	10.854895	25.758500	0.244347	-0.474985	2.142944	0.000000	-0.047505	0.000000	0.000002	-0.000002	0.000000	0.000000
50.128160	10.780923	25.890151	-0.049357	0.113386	2.135561	0.000000	0.008696	0.000000	0.000002	-0.000002	0.000000	0.000000
50.425482	10.818492	25.826185	-0.077003	0.101755	2.138147	0.000000	0.008696	0.000000	0.000001	-0.000002	0.000000	0.000000
50.758816	10.880159	25.762695	-0.107997	0.088714	2.141046	0.000000	0.008696	0.000000	0.000001	-0.000002	0.000000	0.000000
51.092149	10.962488	25.707899	-0.138991	0.075674	2.143945	0.000000	0.008696	0.000000	0.000000	-0.000002	0.000000	0.000000
51.426732	11.065681	25.662160	-0.080329	-0.145599	2.146834	0.000000	-0.008720	0.000000	-0.000000	-0.000001	0.000000	0.000000
51.724055	11.121489	25.752258	-0.080098	-0.220584	2.144241	0.000000	-0.013978	0.000000	-0.000001	-0.000001	0.000000	0.000000
52.165015	11.337356	25.660279	-0.411298	0.428380	2.151667	0.000000	0.047685	0.000000	-0.000001	-0.000002	0.000000	0.000000
52.605975	11.852465	25.002406	-0.761288	1.057853	2.186377	0.000000	0.109891	0.000000	-0.000002	-0.000002	0.000000	0.000000
53.046935	12.690350	23.808573	-1.146060	1.639195	2.248767	0.000000	0.173349	0.000000	-0.000003	-0.000002	0.000000	0.000000
53.487895	13.889291	22.133098	-1.583191	2.145954	2.339547	0.000000	0.238781	0.000000	-0.000003	-0.000002	0.000000	0.000000
53.933855	15.524621	20.027165	-2.096881	2.556412	2.461257	0.000000	0.307331	0.000000	-0.000004	-0.000002	0.000000	0.000000
54.482915	17.630089	17.657414	-1.715099	1.785078	2.609821	0.000000	0.233027	0.000000	-0.000005	-0.000002	0.000000	0.000000
55.031975	19.246907	16.060309	-1.212171	1.140891	2.716392	0.000000	0.154590	0.000000	-0.000006	-0.000001	0.000000	0.000000
55.581035	20.260869	15.122091	-0.623622	0.577967	2.779078	0.000000	0.073411	0.000000	-0.000007	-0.000001	0.000000	0.000000
56.130095	20.600356	14.775932	0.008976	0.056211	2.796767	0.000000	-0.009071	0.000000	-0.000007	-0.000001	0.000000	0.000000
56.428668	20.631475	14.725398	-0.059375	0.074432	2.796241	0.000000	-0.001763	0.000000	-0.000008	-0.000001	0.000000	0.000000
56.762001	20.676463	14.683364	-0.075588	0.051670	2.795654	0.000000	-0.001763	0.000000	-0.000008	-0.000001	0.000000	0.000000
57.095334	20.732259	14.656505	-0.091802	0.028908	2.795066	0.000000	-0.001763	0.000000	-0.000008	-0.000001	0.000000	0.000000
57.429918	20.799135	14.644806	-0.108076	0.006060	2.794477	0.000000	-0.001763	0.000000	-0.000009	-0.000001	0.000000	0.000000
57.727240	20.867701	14.647239	-0.177065	0.024030	2.793953	0.000000	0.005537	0.000000	-0.000009	-0.000001	0.000000	0.000000
58.276300	20.706158	14.902076	0.469542	-0.490904	2.774355	0.000000	-0.076822	0.000000	-0.000010	-0.000001	0.000000	0.000000
58.825360	19.848653	15.738140	1.082982	-1.040803	2.709844	0.000000	-0.157819	0.000000	-0.000010	-0.000000	0.000000	0.000000
59.374420	18.355756	17.214981	1.619927	-1.664837	2.601565	0.000000	-0.236016	0.000000	-0.000010	-0.000000	0.000000	0.000000
59.923480	16.332919	19.437793	2.042448	-2.407454	2.451439	0.000000	-0.310028	0.000000	-0.000010	0.000000	0.000000	0.000000
60.369440	14.749693	21.413418	1.520275	-2.003897	2.328468	0.000000	-0.241748	0.000000	-0.000010	-0.000000	0.000000	0.000000
60.810400	13.611029	22.969064	1.071761	-1.510540	2.236314	0.000000	-0.176620	0.000000	-0.000010	-0.000000	0.000000	0.000000
61.251360	12.844913	24.057524	0.672212	-0.948455	2.172409	0.000000	-0.113502	0.000000	-0.000010	-0.000001	0.000000	0.000000
61.692320	12.416344	24.629275	0.303375	-0.343216	2.136025	0.000000	-0.051678	0.000000	-0.000011	-0.000001	0.000000	0.000000
62.134530	12.305795	24.657760	-0.021523	0.217110	2.126754	0.000000	0.004342	0.000000	-0.000011	-0.000001	0.000000	0.000000
62.431853	12.325780	24.532411	-0.045695	0.204484	2.128045	0.000000	0.004342	0.000000	-0.000011	-0.000001	0.000000	0.000000
62.765186	12.365277	24.400807	-0.072796	0.190328	2.129493	0.000000	0.004342	0.000000	-0.000012	-0.000001	0.000000	0.000000
63.098520	12.422841	24.278640	-0.099896	0.176173	2.130941	0.000000	0.004342	0.000000	-0.000012	-0.000001	0.000000	0.000000
63.433103	12.498789	24.165505	-0.127097	0.161964	2.132394	0.000000	0.004342	0.000000	-0.000013	-0.000001	0.000000	0.000000
63.730426	12.581554	24.072948	-0.120412	0.090296	2.133685	0.000000	-0.000891	0.000000	-0.000013	-0.000001	0.000000	0.000000
64.171386	12.847997	23.728206	-0.486114	0.688527	2.146832	0.000000	0.060574	0.000000	-0.000013	-0.000001	0.000000	0.000000
64.612346	13.445497	22.867724	-0.874025	1.255430	2.187209	0.000000	0.122729	0.000000	-0.000014	-0.000002	0.000000	0.000000
65.053306	14.401352	21.530654	-1.301868	1.765213	2.255276	0.000000	0.186281	0.000000	-0.000015	-0.000002	0.000000	0.000000
65.494266	15.759232	19.777831	-1.789189	2.194679	2.351807	0.000000	0.251955	0.000000	-0.000016	-0.000003	0.000000	0.000000
65.940226	17.604336	17.664207	-2.362945	2.525041	2.479475	0.000000	0.320901	0.000000	-0.000017	-0.000003	0.000000	0.000000
66.489286	19.969691	15.299763	-1.919564	1.806729	2.635306	0.000000	0.245889	0.000000	-0.000019	-0.000002	0.000000	0.000000
67.038346	21.770372	13.649240	-1.340595	1.217105	2.748692	0.000000	0.166515	0.000000	-0.000020	-0.000002	0.000000	0.000000
67.587406	22.879188	12.595075	-0.666934	0.714173	2.817619	0.000000	0.084188	0.000000	-0.000021	-0.000001	0.000000	0.000000
68.136466	23.217819	12.062182	0.053837	0.262111	2.840867	0.000000	0.000368	0.000000	-0.000021	-0.000000	0.000000	0.000000
68.435038	23.225742	11.894868	-0.019698	0.266746	2.843194	0.000000	0.007792	0.000000	-0.000021	-0.000000	0.000000	0.000000
68.768372	23.243660	11.727044	-0.034055	0.236728	2.845791	0.000000	0.007792	0.000000	-0.000021	-0.000000	0.000000	0.000000
69.101705	23.271150	11.579230	-0.048413	0.206711	2.848388	0.000000	0.007792	0.000000	-0.000022	-0.000000	0.000000	0.000000
69.436288	23.308368	11.450987	-0.062824	0.176581	2.850995	0.000000	0.007792	0.000000	-0.000022	-0.000000	0.000000	0.000000
69.733611	23.349533	11.353945	-0.136650	0.179478	2.853312	0.000000	0.015248	0.000000	-0.000022	-0.000001	0.000000	0.000000
70.282671	23.098570	11.384271	0.591022	-0.235038	2.838503	0.000000	-0.069112	0.000000	-0.000022	0.000000	0.000000	0.000000
