#ParticleID	Turn	x[m]	xp	y[m]	yp	z[m]	dE[GeV]# s	beta_x	beta_y	alpha_x	alpha_y	D_x	D_y	D_px	D_py	orbit_x	orbit_px	orbit_y	orbit_py
0.300000	11.823288	24.980122	-0.012169	-0.027615	2.618106	0.000000	0.000015	0.000000	-0.000000	0.000001	0.000000	0.000000
0.601250	11.838297	25.000396	-0.037652	-0.039684	2.618111	0.000000	0.000015	0.000000	0.000000	0.000001	0.000000	0.000000
0.898573	11.868165	25.027535	-0.033699	-0.112970	2.618115	0.000000	-0.006406	0.000000	0.000000	0.000001	0.000000	0.000000
1.339533	12.050131	24.849564	-0.380525	0.515034	2.631583	0.000000	0.067552	0.000000	0.000001	0.000001	0.000000	0.000000
1.780493	12.544451	24.126000	-0.744737	1.119605	2.677802	0.000000	0.142278	0.000000	0.000001	0.000001	0.000000	0.000000
2.221453	13.373709	22.889766	-1.142973	1.673234	2.757298	0.000000	0.218626	0.000000	0.000001	0.000001	0.000000	0.000000
2.662413	14.575792	21.197108	-1.593428	2.150732	2.870977	0.000000	0.297463	0.000000	0.000001	0.000001	0.000000	0.000000
3.108373	16.226397	19.100218	-2.120977	2.531505	3.021994	0.000000	0.380177	0.000000	0.000002	0.000001	0.000000	0.000000
3.657433	18.342994	16.745161	-1.711149	1.783065	3.205462	0.000000	0.287139	0.000000	0.000002	0.000001	0.000000	0.000000
4.206493	19.940112	15.137834	-1.180453	1.161629	3.336372	0.000000	0.189008	0.000000	0.000002	0.000001	0.000000	0.000000
4.755553	20.904938	14.163752	-0.566376	0.622934	3.412400	0.000000	0.087524	0.000000	0.000003	0.000000	0.000000	0.000000
5.304613	21.169321	13.753531	0.087707	0.128608	3.432198	0.000000	-0.015512	0.000000	0.000003	0.000000	0.000000	0.000000
5.603185	21.154191	13.661932	0.018278	0.142246	3.430244	0.000000	-0.006544	0.000000	0.000003	0.000000	0.000000	0.000000
5.936519	21.147261	13.575399	0.002515	0.117354	3.428063	0.000000	-0.006544	0.000000	0.000003	0.000000	0.000000	0.000000
6.269852	21.150838	13.505461	-0.013248	0.092462	3.425881	0.000000	-0.006544	0.000000	0.000003	0.000000	0.000000	0.000000
6.604435	21.164997	13.451948	-0.029069	0.067476	3.423691	0.000000	-0.006544	0.000000	0.000003	0.000000	0.000000	0.000000
6.901758	21.186463	13.418425	-0.098484	0.080332	3.421745	0.000000	0.002396	0.000000	0.000004	0.000000	0.000000	0.000000
7.450818	20.933488	13.590854	0.556497	-0.396228	3.394859	0.000000	-0.100187	0.000000	0.000004	0.000000	0.000000	0.000000
7.999878	19.978694	14.298937	1.172170	-0.901011	3.312054	0.000000	-0.200992	0.000000	0.000004	0.000000	0.000000	0.000000
8.548938	18.389522	15.593108	1.705047	-1.469970	3.174800	0.000000	-0.298233	0.000000	0.000004	0.000000	0.000000	0.000000
9.097998	16.278223	17.565550	2.117488	-2.143632	2.985530	0.000000	-0.390184	0.000000	0.000004	-0.000000	0.000000	0.000000
9.543958	14.630958	19.323131	1.589394	-1.780829	2.829831	0.000000	-0.308476	0.000000	0.000004	0.000000	0.000000	0.000000
9.984918	13.432740	20.703765	1.138209	-1.338230	2.711052	0.000000	-0.230765	0.000000	0.000004	0.000000	0.000000	0.000000
10.425878	12.608083	21.665619	0.739025	-0.834743	2.625929	0.000000	-0.155682	0.000000	0.000004	0.000000	0.000000	0.000000
10.866838	12.119312	22.164930	0.373606	-0.293275	2.573493	0.000000	-0.082373	0.000000	0.000004	0.000000	0.000000	0.000000
11.309048	11.943958	22.178461	0.054439	0.207090	2.553124	0.000000	-0.016263	0.000000	0.000004	0.000000	0.000000	0.000000
11.606371	11.919009	22.059473	0.029472	0.193109	2.548289	0.000000	-0.016263	0.000000	0.000004	0.000000	0.000000	0.000000
12.086371	11.910063	21.884922	-0.010834	0.170538	2.540483	0.000000	-0.016263	0.000000	0.000005	0.000000	0.000000	0.000000
12.566371	11.939811	21.732040	-0.051141	0.147967	2.532676	0.000000	-0.016263	0.000000	0.000005	0.000000	0.000000	0.000000
13.046371	12.008254	21.600825	-0.091448	0.125397	2.524870	0.000000	-0.016263	0.000000	0.000005	0.000000	0.000000	0.000000
13.526371	12.115391	21.491278	-0.131755	0.102826	2.517063	0.000000	-0.016263	0.000000	0.000005	0.000000	0.000000	0.000000
14.007621	12.261653	21.403198	-0.172166	0.080196	2.509237	0.000000	-0.016263	0.000000	0.000005	0.000000	0.000000	0.000000
14.304943	12.371454	21.359667	-0.166796	0.013838	2.504401	0.000000	-0.022404	0.000000	0.000006	0.000000	0.000000	0.000000
14.745903	12.677194	21.113664	-0.529182	0.541919	2.510154	0.000000	0.048522	0.000000	0.000006	0.000001	0.000000	0.000000
15.186863	13.311941	20.411071	-0.915745	1.045344	2.547275	0.000000	0.120001	0.000000	0.000006	0.000001	0.000000	0.000000
15.627823	14.304696	19.283855	-1.344146	1.501206	2.616185	0.000000	0.192847	0.000000	0.000006	0.000001	0.000000	0.000000
16.068783	15.700816	17.783303	-1.833957	1.888764	2.717672	0.000000	0.267889	0.000000	0.000007	0.000001	0.000000	0.000000
16.514743	17.587740	15.956187	-2.412313	2.191133	2.854584	0.000000	0.346445	0.000000	0.000007	0.000001	0.000000	0.000000
17.063803	20.011084	13.915965	-1.975183	1.546647	3.021070	0.000000	0.259106	0.000000	0.000008	0.000001	0.000000	0.000000
17.612863	21.874490	12.519180	-1.398537	1.012325	3.138268	0.000000	0.167172	0.000000	0.000008	0.000001	0.000000	0.000000
18.161923	23.046335	11.666343	-0.723104	0.550110	3.204099	0.000000	0.072272	0.000000	0.000009	0.000000	0.000000	0.000000
18.710983	23.443846	11.296709	0.003405	0.127077	3.217396	0.000000	-0.023910	0.000000	0.000009	0.000000	0.000000	0.000000
19.009556	23.482203	11.211286	-0.070623	0.129513	3.212766	0.000000	-0.015504	0.000000	0.000009	0.000000	0.000000	0.000000
19.342889	23.534041	11.135021	-0.084889	0.099282	3.207598	0.000000	-0.015504	0.000000	0.000009	0.000000	0.000000	0.000000
19.676223	23.595389	11.078910	-0.099155	0.069052	3.202430	0.000000	-0.015504	0.000000	0.000009	0.000000	0.000000	0.000000
20.010806	23.666824	11.042719	-0.230733	0.093420	3.197263	0.000000	0.000337	0.000000	0.000009	0.000000	0.000000	0.000000
20.308129	23.807962	10.995242	-0.306166	0.094987	3.197363	0.000000	0.008691	0.000000	0.000009	0.000000	0.000000	0.000000
20.857189	23.733547	11.113321	0.440895	-0.311313	3.175912	0.000000	-0.086710	0.000000	0.000009	-0.000000	0.000000	0.000000
21.406249	22.851085	11.687051	1.156814	-0.739786	3.102427	0.000000	-0.180572	0.000000	0.000009	-0.000000	0.000000	0.000000
21.955309	21.222908	12.757298	1.791021	-1.220953	2.978211	0.000000	-0.271232	0.000000	0.000009	-0.000001	0.000000	0.000000
22.504369	18.964024	14.400292	2.298719	-1.789086	2.805466	0.000000	-0.357081	0.000000	0.000008	-0.000001	0.000000	0.000000
22.950329	17.183900	15.875304	1.707038	-1.504458	2.663518	0.000000	-0.279865	0.000000	0.000008	-0.000001	0.000000	0.000000
23.391289	15.907716	17.051274	1.198045	-1.152236	2.556433	0.000000	-0.206291	0.000000	0.000008	-0.000001	0.000000	0.000000
23.832249	15.054682	17.892220	0.743787	-0.747587	2.481242	0.000000	-0.135066	0.000000	0.000008	-0.000000	0.000000	0.000000
24.273209	14.585825	18.359879	0.323510	-0.308924	2.437090	0.000000	-0.065380	0.000000	0.000008	-0.000000	0.000000	0.000000
24.715418	14.479842	18.432726	-0.046567	0.098527	2.423470	0.000000	-0.002381	0.000000	0.000008	0.000000	0.000000	0.000000
25.012741	14.513652	18.378979	-0.067145	0.082240	2.422762	0.000000	-0.002381	0.000000	0.000008	0.000000	0.000000	0.000000
25.346075	14.566106	18.330239	-0.090216	0.063981	2.421968	0.000000	-0.002381	0.000000	0.000008	0.000000	0.000000	0.000000
25.679408	14.633940	18.293672	-0.113286	0.045722	2.421174	0.000000	-0.002381	0.000000	0.000008	0.000000	0.000000	0.000000
26.013991	14.717196	18.269579	-0.017048	-0.120818	2.420353	0.000000	-0.022017	0.000000	0.000008	0.000000	0.000000	0.000000
26.311314	14.733342	18.346332	-0.001128	-0.182317	2.413807	0.000000	-0.027936	0.000000	0.000008	-0.000000	0.000000	0.000000
26.752274	14.915874	18.308123	-0.414383	0.268638	2.416600	0.000000	0.040617	0.000000	0.000008	0.000000	0.000000	0.000000
27.193234	15.469802	17.876098	-0.846570	0.707370	2.449695	0.000000	0.109632	0.000000	0.000008	0.000000	0.000000	0.000000
27.634194	16.420435	17.069916	-1.317434	1.113917	2.513469	0.000000	0.179896	0.000000	0.000008	0.000001	0.000000	0.000000
28.075154	17.811205	15.926255	-1.848488	1.469782	2.608649	0.000000	0.252209	0.000000	0.000008	0.000001	0.000000	0.000000
28.521114	19.729816	14.479928	-2.468956	1.759686	2.737922	0.000000	0.327838	0.000000	0.000009	0.000001	0.000000	0.000000
29.070174	22.168384	12.868347	-1.946104	1.192803	2.895257	0.000000	0.244427	0.000000	0.000009	0.000001	0.000000	0.000000
29.619234	23.953454	11.829244	-1.285788	0.710880	3.005535	0.000000	0.156681	0.000000	0.000010	0.000000	0.000000	0.000000
30.168294	24.958937	11.288606	-0.534651	0.279592	3.066801	0.000000	0.066156	0.000000	0.000010	0.000000	0.000000	0.000000
30.717354	25.113811	11.207926	0.254251	-0.131782	3.077967	0.000000	-0.025542	0.000000	0.000010	-0.000000	0.000000	0.000000
31.015927	25.004842	11.277170	0.176326	-0.129419	3.072742	0.000000	-0.017501	0.000000	0.000010	-0.000000	0.000000	0.000000
31.349260	24.891873	11.373467	0.162581	-0.159472	3.066909	0.000000	-0.017501	0.000000	0.000010	-0.000000	0.000000	0.000000
31.682593	24.788068	11.489800	0.148836	-0.189526	3.061075	0.000000	-0.017501	0.000000	0.000009	-0.000000	0.000000	0.000000
32.017177	24.693088	11.626717	0.135039	-0.219692	3.055220	0.000000	-0.017501	0.000000	0.000009	-0.000000	0.000000	0.000000
32.314499	24.616433	11.765326	0.058466	-0.215760	3.050016	0.000000	-0.009532	0.000000	0.000009	-0.000000	0.000000	0.000000
32.863559	24.130508	12.241539	0.821306	-0.656684	3.019897	0.000000	-0.100018	0.000000	0.000009	-0.000000	0.000000	0.000000
33.412619	22.833948	13.224630	1.526134	-1.144382	2.940511	0.000000	-0.188730	0.000000	0.000009	-0.000001	0.000000	0.000000
33.961679	20.818333	14.784621	2.123163	-1.713592	2.813265	0.000000	-0.274094	0.000000	0.000008	-0.000001	0.000000	0.000000
34.510739	18.226037	17.032628	2.570222	-2.404857	2.640417	0.000000	-0.354597	0.000000	0.000008	-0.000001	0.000000	0.000000
34.956699	16.210491	19.043349	1.965537	-2.085064	2.498625	0.000000	-0.281660	0.000000	0.000007	-0.000001	0.000000	0.000000
35.397659	14.707581	20.706015	1.455660	-1.671148	2.389807	0.000000	-0.212359	0.000000	0.000007	-0.000001	0.000000	0.000000
35.838619	13.623427	21.968590	1.012288	-1.181197	2.310987	0.000000	-0.145477	0.000000	0.000006	-0.000001	0.000000	0.000000
36.279579	12.908498	22.773627	0.615164	-0.637502	2.261266	0.000000	-0.080252	0.000000	0.000006	-0.000001	0.000000	0.000000
36.721789	12.529438	23.084802	0.276764	-0.121463	2.240051	0.000000	-0.021434	0.000000	0.000006	-0.000000	0.000000	0.000000
37.019112	12.372458	23.160916	0.251216	-0.134533	2.233678	0.000000	-0.021434	0.000000	0.000006	-0.000000	0.000000	0.000000
37.352445	12.214528	23.255489	0.222574	-0.149186	2.226534	0.000000	-0.021434	0.000000	0.000006	-0.000000	0.000000	0.000000
37.685779	12.075692	23.359830	0.193933	-0.163838	2.219389	0.000000	-0.021434	0.000000	0.000005	-0.000000	0.000000	0.000000
38.020362	11.955538	23.474386	0.165183	-0.178546	2.212218	0.000000	-0.021434	0.000000	0.000005	-0.000000	0.000000	0.000000
38.317684	11.864908	23.584443	0.168731	-0.249449	2.205845	0.000000	-0.026843	0.000000	0.000005	-0.000000	0.000000	0.000000
38.758644	11.867408	23.543221	-0.174420	0.342575	2.207937	0.000000	0.036340	0.000000	0.000005	-0.000000	0.000000	0.000000
39.199604	12.174896	22.984786	-0.525540	0.919012	2.237955	0.000000	0.099936	0.000000	0.000005	-0.000000	0.000000	0.000000
39.640564	12.801421	21.934547	-0.900671	1.453635	2.296240	0.000000	0.164671	0.000000	0.000005	-0.000000	0.000000	0.000000
40.081524	13.775607	20.440289	-1.316950	1.922118	2.383456	0.000000	0.231281	0.000000	0.000005	0.000000	0.000000	0.000000
40.527484	15.159532	18.547431	-1.797223	2.304427	2.502069	0.000000	0.300930	0.000000	0.000005	0.000000	0.000000	0.000000
41.076544	16.925715	16.420393	-1.400474	1.592404	2.646766	0.000000	0.225366	0.000000	0.000005	0.000000	0.000000	0.000000
41.625604	18.198988	15.008741	-0.904804	0.993805	2.748814	0.000000	0.145805	0.000000	0.000005	-0.000000	0.000000	0.000000
42.174664	18.889414	14.211929	-0.345222	0.465992	2.806403	0.000000	0.063658	0.000000	0.000005	-0.000000	0.000000	0.000000
42.723724	18.948225	13.973200	0.238744	-0.028630	2.818511	0.000000	-0.019619	0.000000	0.000005	-0.000000	0.000000	0.000000
43.022297	18.840095	13.974875	0.172916	-0.013490	2.814852	0.000000	-0.012255	0.000000	0.000004	-0.000000	0.000000	0.000000
43.502297	18.686691	14.004316	0.146677	-0.047844	2.808970	0.000000	-0.012255	0.000000	0.000004	-0.000000	0.000000	0.000000
43.982297	18.558475	14.066736	0.120438	-0.082197	2.803088	0.000000	-0.012255	0.000000	0.000004	-0.000000	0.000000	0.000000
44.462297	18.455450	14.162135	0.094198	-0.116551	2.797206	0.000000	-0.012255	0.000000	0.000004	-0.000000	0.000000	0.000000
44.942297	18.377615	14.290514	0.067959	-0.150905	2.791324	0.000000	-0.012255	0.000000	0.000004	-0.000000	0.000000	0.000000
45.423547	18.325092	14.452156	-0.049141	-0.113743	2.785443	0.000000	0.001546	0.000000	0.000003	-0.000000	0.000000	0.000000
45.720870	18.359149	14.525989	-0.113373	-0.096629	2.785903	0.000000	0.008825	0.000000	0.000003	-0.000000	0.000000	0.000000
46.269930	18.174509	14.913090	0.447665	-0.612557	2.768176	0.000000	-0.073304	0.000000	0.000003	-0.000001	0.000000	0.000000
46.818990	17.387579	15.887232	0.977083	-1.172115	2.705645	0.000000	-0.154133	0.000000	0.000003	-0.000001	0.000000	0.000000
47.368050	16.053942	17.517801	1.437484	-1.815161	2.599422	0.000000	-0.232228	0.000000	0.000002	-0.000001	0.000000	0.000000
47.917110	14.267800	19.920939	1.796349	-2.587497	2.451388	0.000000	-0.306204	0.000000	0.000002	-0.000001	0.000000	0.000000
48.363070	12.877762	22.057597	1.331650	-2.183504	2.330127	0.000000	-0.237903	0.000000	0.000002	-0.000001	0.000000	0.000000
48.804030	11.883550	23.768391	0.931558	-1.681435	2.239681	0.000000	-0.172710	0.000000	0.000001	-0.000001	0.000000	0.000000
49.244990	11.222156	25.000845	0.574027	-1.102863	2.177522	0.000000	-0.109483	0.000000	0.000001	-0.000001	0.000000	0.000000
49.685950	10.863363	25.698883	0.242722	-0.474110	2.142943	0.000000	-0.047503	0.000000	0.000001	-0.000001	0.000000	0.000000
50.128160	10.790908	25.830464	-0.051149	0.112821	2.135560	0.000000	0.008698	0.000000	0.000001	-0.000001	0.000000	0.000000
50.425482	10.829536	25.766841	-0.078774	0.101164	2.138147	0.000000	0.008698	0.000000	0.000000	-0.000001	0.000000	0.000000
50.758816	10.892376	25.703755	-0.109745	0.088095	2.141046	0.000000	0.008698	0.000000	0.000000	-0.000001	0.000000	0.000000
51.092149	10.975863	25.649382	-0.140716	0.075026	2.143946	0.000000	0.008698	0.000000	-0.000000	-0.000001	0.000000	0.000000
51.426732	11.080202	25.604085	-0.081913	-0.145805	2.146834	0.000000	-0.008718	0.000000	-0.000000	-0.000001	0.000000	0.000000
51.724055	11.136943	25.694314	-0.081616	-0.220675	2.144242	0.000000	-0.013977	0.000000	-0.000000	-0.000001	0.000000	0.000000
52.165015	11.354314	25.603091	-0.413206	0.426761	2.151668	0.000000	0.047687	0.000000	-0.000001	-0.000001	0.000000	0.000000
52.605975	11.871310	24.947295	-0.763674	1.054780	2.186378	0.000000	0.109893	0.000000	-0.000001	-0.000001	0.000000	0.000000
53.046935	12.711549	23.756764	-1.149032	1.634807	2.248769	0.000000	0.173351	0.000000	-0.000001	-0.000001	0.000000	0.000000
53.487895	13.913419	22.085666	-1.586886	2.140452	2.339550	0.000000	0.238783	0.000000	-0.000002	-0.000001	0.000000	0.000000
53.933855	15.552431	19.985048	-2.101474	2.550044	2.461260	0.000000	0.307334	0.000000	-0.000002	-0.000001	0.000000	0.000000
54.482915	17.662579	17.621371	-1.718977	1.780320	2.609825	0.000000	0.233029	0.000000	-0.000002	-0.000001	0.000000	0.000000
55.031975	19.283134	16.028766	-1.215059	1.137405	2.716396	0.000000	0.154592	0.000000	-0.000003	-0.000001	0.000000	0.000000
55.581035	20.299627	15.093795	-0.625316	0.575504	2.779082	0.000000	0.073412	0.000000	-0.000003	-0.000001	0.000000	0.000000
56.130095	20.640260	14.749863	0.008596	0.054596	2.796773	0.000000	-0.009070	0.000000	-0.000003	-0.000000	0.000000	0.000000
56.428668	20.671659	14.700343	-0.059830	0.072718	2.796247	0.000000	-0.001762	0.000000	-0.000003	-0.000000	0.000000	0.000000
56.762001	20.716940	14.659463	-0.076013	0.049922	2.795659	0.000000	-0.001762	0.000000	-0.000003	-0.000000	0.000000	0.000000
57.095334	20.773009	14.633780	-0.092196	0.027127	2.795072	0.000000	-0.001762	0.000000	-0.000004	-0.000000	0.000000	0.000000
57.429918	20.840138	14.623283	-0.108439	0.004247	2.794483	0.000000	-0.001762	0.000000	-0.000004	-0.000000	0.000000	0.000000
57.727240	20.908913	14.626803	-0.177507	0.022132	2.793959	0.000000	0.005538	0.000000	-0.000004	-0.000000	0.000000	0.000000
58.276300	20.747093	14.883412	0.470482	-0.492252	2.774361	0.000000	-0.076821	0.000000	-0.000004	-0.000000	0.000000	0.000000
58.825360	19.887822	15.720701	1.085239	-1.041699	2.709851	0.000000	-0.157818	0.000000	-0.000004	-0.000000	0.000000	0.000000
59.374420	18.391795	17.198307	1.623340	-1.665343	2.601572	0.000000	-0.236016	0.000000	-0.000004	-0.000000	0.000000	0.000000
59.923480	16.364682	19.421478	2.046776	-2.407606	2.451445	0.000000	-0.310028	0.000000	-0.000004	0.000000	0.000000	0.000000
60.369440	14.778028	21.397492	1.523663	-2.004614	2.328475	0.000000	-0.241748	0.000000	-0.000004	-0.000000	0.000000	0.000000
60.810400	13.636729	22.954007	1.074370	-1.511785	2.236321	0.000000	-0.176619	0.000000	-0.000004	-0.000000	0.000000	0.000000
61.251360	12.868610	24.043778	0.674163	-0.950172	2.172416	0.000000	-0.113502	0.000000	-0.000004	-0.000000	0.000000	0.000000
61.692320	12.438578	24.617223	0.304755	-0.345326	2.136032	0.000000	-0.051677	0.000000	-0.000004	-0.000000	0.000000	0.000000
62.134530	12.327036	24.647712	-0.020599	0.214732	2.126761	0.000000	0.004344	0.000000	-0.000005	-0.000000	0.000000	0.000000
62.431853	12.346460	24.523775	-0.044729	0.202113	2.128052	0.000000	0.004344	0.000000	-0.000005	-0.000000	0.000000	0.000000
62.765186	12.385297	24.393749	-0.071781	0.187965	2.129500	0.000000	0.004344	0.000000	-0.000005	-0.000000	0.000000	0.000000
63.098520	12.442168	24.273155	-0.098833	0.173818	2.130948	0.000000	0.004344	0.000000	-0.000005	-0.000000	0.000000	0.000000
63.433103	12.517389	24.161593	-0.125987	0.159617	2.132402	0.000000	0.004344	0.000000	-0.000005	-0.000000	0.000000	0.000000
63.730426	12.599481	24.070430	-0.119218	0.087967	2.133693	0.000000	-0.000889	0.000000	-0.000005	-0.000000	0.000000	0.000000
64.171386	12.865041	23.727753	-0.485298	0.686192	2.146841	0.000000	0.060576	0.000000	-0.000005	-0.000001	0.000000	0.000000
64.612346	13.461973	22.869294	-0.873549	1.253195	2.187218	0.000000	0.122731	0.000000	-0.000006	-0.000001	0.000000	0.000000
65.053306	14.417550	21.534112	-1.301711	1.763180	2.255285	0.000000	0.186283	0.000000	-0.000006	-0.000001	0.000000	0.000000
65.494266	15.775430	19.782958	-1.789344	2.192941	2.351817	0.000000	0.251958	0.000000	-0.000007	-0.000001	0.000000	0.000000
65.940226	17.620815	17.670722	-2.363419	2.523680	2.479485	0.000000	0.320904	0.000000	-0.000007	-0.000001	0.000000	0.000000
66.489286	19.986328	15.307741	-1.919374	1.805408	2.635317	0.000000	0.245891	0.000000	-0.000008	-0.000001	0.000000	0.000000
67.038346	21.786441	13.658689	-1.339755	1.215731	2.748703	0.000000	0.166517	0.000000	-0.000008	-0.000001	0.000000	0.000000
67.587406	22.894002	12.606106	-0.665501	0.712648	2.817632	0.000000	0.084190	0.000000	-0.000008	-0.000000	0.000000	0.000000
68.136466	23.230780	12.075021	0.055760	0.260325	2.840880	0.000000	0.000369	0.000000	-0.000009	-0.000000	0.000000	0.000000
68.435038	23.237569	11.908739	-0.017795	0.265044	2.843206	0.000000	0.007792	0.000000	-0.000009	-0.000000	0.000000	0.000000
68.768372	23.254215	11.742029	-0.032144	0.235087	2.845804	0.000000	0.007792	0.000000	-0.000009	-0.000000	0.000000	0.000000
69.101705	23.280428	11.595290	-0.046493	0.205130	2.848401	0.000000	0.007792	0.000000	-0.000009	-0.000000	0.000000	0.000000
69.436288	23.316358	11.468085	-0.060896	0.175061	2.851008	0.000000	0.007792	0.000000	-0.000009	-0.000000	0.000000	0.000000
69.733611	23.356375	11.371930	-0.134725	0.178055	2.853325	0.000000	0.015248	0.000000	-0.000009	-0.000000	0.000000	0.000000
70.282671	23.103192	11.404101	0.593116	-0.236994	2.838516	0.000000	-0.069113	0.000000	-0.000009	0.000000	0.000000	0.000000
