#ParticleID	Turn	x[m]	xp	y[m]	yp	z[m]	dE[GeV]# s	beta_x	beta_y	alpha_x	alpha_y	D_x	D_y	D_px	D_py	orbit_x	orbit_px	orbit_y	orbit_py
0.300000	11.803855	25.057759	-0.010078	-0.026804	2.618274	0.000000	-0.000049	0.000000	-0.000002	0.000002	0.000000	0.000000
0.601250	11.817616	25.077533	-0.035602	-0.038835	2.618259	0.000000	-0.000049	0.000000	-0.000001	0.000002	0.000000	0.000000
0.898573	11.846277	25.104156	-0.031743	-0.112272	2.618244	0.000000	-0.006469	0.000000	-0.000001	0.000002	0.000000	0.000000
1.339533	12.026283	24.924677	-0.378019	0.517742	2.631684	0.000000	0.067491	0.000000	0.000000	0.000002	0.000000	0.000000
1.780493	12.518110	24.197881	-0.741567	1.124199	2.677877	0.000000	0.142220	0.000000	0.000001	0.000002	0.000000	0.000000
2.221453	13.344229	22.956837	-1.138994	1.679506	2.757347	0.000000	0.218569	0.000000	0.000002	0.000002	0.000000	0.000000
2.662413	14.542381	21.258010	-1.588459	2.158397	2.871000	0.000000	0.297407	0.000000	0.000003	0.000002	0.000000	0.000000
3.108373	16.188025	19.153787	-2.114781	2.540216	3.021992	0.000000	0.380122	0.000000	0.000004	0.000002	0.000000	0.000000
3.657433	18.298331	16.790376	-1.705954	1.789660	3.205429	0.000000	0.287084	0.000000	0.000005	0.000002	0.000000	0.000000
4.206493	19.890467	15.176749	-1.176627	1.166577	3.336307	0.000000	0.188954	0.000000	0.000006	0.000002	0.000000	0.000000
4.755553	20.851972	14.197971	-0.564189	0.626588	3.412306	0.000000	0.087473	0.000000	0.000007	0.000002	0.000000	0.000000
5.304613	21.114930	13.784326	0.088101	0.131229	3.432077	0.000000	-0.015559	0.000000	0.000007	0.000001	0.000000	0.000000
5.603185	21.099490	13.691106	0.018779	0.144976	3.430108	0.000000	-0.006593	0.000000	0.000008	0.000001	0.000000	0.000000
5.936519	21.092239	13.602741	0.002975	0.120118	3.427910	0.000000	-0.006593	0.000000	0.000008	0.000001	0.000000	0.000000
6.269852	21.095523	13.530949	-0.012829	0.095259	3.425712	0.000000	-0.006593	0.000000	0.000009	0.000001	0.000000	0.000000
6.604435	21.109415	13.475553	-0.028692	0.070308	3.423506	0.000000	-0.006593	0.000000	0.000009	0.000001	0.000000	0.000000
6.901758	21.130668	13.440338	-0.097994	0.083249	3.421546	0.000000	0.002347	0.000000	0.000010	0.000001	0.000000	0.000000
7.450818	20.878184	13.609888	0.555120	-0.393873	3.394634	0.000000	-0.100229	0.000000	0.000010	0.000001	0.000000	0.000000
7.999878	19.925889	14.315616	1.169023	-0.899051	3.311808	0.000000	-0.201027	0.000000	0.000011	0.000001	0.000000	0.000000
8.548938	18.341047	15.607787	1.700353	-1.468266	3.174536	0.000000	-0.298259	0.000000	0.000011	0.000000	0.000000	0.000000
9.097998	16.235605	17.578442	2.111578	-2.142062	2.985254	0.000000	-0.390201	0.000000	0.000011	-0.000000	0.000000	0.000000
9.543958	14.593028	19.334362	1.584756	-1.778688	2.829545	0.000000	-0.308501	0.000000	0.000011	0.000000	0.000000	0.000000
9.984918	13.398423	20.712895	1.134621	-1.335622	2.710754	0.000000	-0.230797	0.000000	0.000011	0.000001	0.000000	0.000000
10.425878	12.576529	21.672286	0.736324	-0.831786	2.625615	0.000000	-0.155723	0.000000	0.000012	0.000001	0.000000	0.000000
10.866838	12.089796	22.168885	0.371667	-0.290105	2.573158	0.000000	-0.082422	0.000000	0.000012	0.000001	0.000000	0.000000
11.309048	11.915854	22.179571	0.053103	0.210331	2.552766	0.000000	-0.016319	0.000000	0.000013	0.000001	0.000000	0.000000
11.606371	11.891716	22.058660	0.028081	0.196333	2.547914	0.000000	-0.016319	0.000000	0.000013	0.000001	0.000000	0.000000
12.086371	11.884148	21.881028	-0.012315	0.173734	2.540080	0.000000	-0.016319	0.000000	0.000014	0.000001	0.000000	0.000000
12.566371	11.915361	21.725091	-0.052711	0.151135	2.532246	0.000000	-0.016319	0.000000	0.000014	0.000001	0.000000	0.000000
13.046371	11.985354	21.590849	-0.093107	0.128536	2.524412	0.000000	-0.016319	0.000000	0.000015	0.000001	0.000000	0.000000
13.526371	12.094127	21.478301	-0.133503	0.105937	2.516578	0.000000	-0.016319	0.000000	0.000016	0.000001	0.000000	0.000000
14.007621	12.242115	21.387241	-0.174005	0.083279	2.508724	0.000000	-0.016319	0.000000	0.000017	0.000001	0.000000	0.000000
14.304943	12.353026	21.341881	-0.168738	0.016953	2.503871	0.000000	-0.022458	0.000000	0.000017	0.000001	0.000000	0.000000
14.745903	12.660315	21.093362	-0.530768	0.544488	2.509597	0.000000	0.048454	0.000000	0.000018	0.000002	0.000000	0.000000
15.186863	13.296331	20.388789	-0.917047	1.047248	2.546683	0.000000	0.119918	0.000000	0.000019	0.000002	0.000000	0.000000
15.627823	14.290133	19.260219	-1.345224	1.502360	2.615553	0.000000	0.192748	0.000000	0.000020	0.000003	0.000000	0.000000
16.068783	15.687124	17.759001	-1.834860	1.889115	2.716991	0.000000	0.267773	0.000000	0.000021	0.000003	0.000000	0.000000
16.514743	17.574791	15.931940	-2.413083	2.190659	2.853847	0.000000	0.346311	0.000000	0.000023	0.000004	0.000000	0.000000
17.063803	19.999350	13.891940	-1.976610	1.546712	3.020265	0.000000	0.258997	0.000000	0.000025	0.000003	0.000000	0.000000
17.612863	21.864640	12.494786	-1.400518	1.012935	3.137410	0.000000	0.167089	0.000000	0.000026	0.000002	0.000000	0.000000
18.161923	23.038904	11.640964	-0.725501	0.551306	3.203202	0.000000	0.072218	0.000000	0.000027	0.000001	0.000000	0.000000
18.710983	23.439199	11.269656	0.000762	0.128946	3.216477	0.000000	-0.023934	0.000000	0.000028	0.000001	0.000000	0.000000
19.009556	23.479124	11.183187	-0.073251	0.131226	3.211839	0.000000	-0.015532	0.000000	0.000028	0.000001	0.000000	0.000000
19.342889	23.532715	11.105809	-0.087524	0.100906	3.206661	0.000000	-0.015532	0.000000	0.000028	0.000001	0.000000	0.000000
19.676223	23.595822	11.048645	-0.101797	0.070586	3.201484	0.000000	-0.015532	0.000000	0.000028	0.000001	0.000000	0.000000
20.010806	23.669028	11.011457	-0.233393	0.094710	3.196307	0.000000	0.000304	0.000000	0.000029	0.000001	0.000000	0.000000
20.308129	23.811753	10.963238	-0.308840	0.096105	3.196397	0.000000	0.008654	0.000000	0.000029	0.000001	0.000000	0.000000
20.857189	23.740191	11.079592	0.438404	-0.309270	3.174935	0.000000	-0.086715	0.000000	0.000029	-0.000000	0.000000	0.000000
21.406249	22.860283	11.650508	1.154681	-0.736674	3.101456	0.000000	-0.180546	0.000000	0.000029	-0.000001	0.000000	0.000000
21.955309	21.234181	12.716653	1.789397	-1.216550	2.977262	0.000000	-0.271175	0.000000	0.000028	-0.000002	0.000000	0.000000
22.504369	18.976745	14.353964	2.297718	-1.783078	2.804558	0.000000	-0.356993	0.000000	0.000027	-0.000003	0.000000	0.000000
22.950329	17.197575	15.824084	1.705890	-1.499542	2.662644	0.000000	-0.279800	0.000000	0.000025	-0.000002	0.000000	0.000000
23.391289	15.922487	16.996282	1.196696	-1.148629	2.555583	0.000000	-0.206249	0.000000	0.000025	-0.000001	0.000000	0.000000
23.832249	15.070752	17.834689	0.742176	-0.745456	2.480406	0.000000	-0.135046	0.000000	0.000024	-0.000001	0.000000	0.000000
24.273209	14.603458	18.301156	0.321564	-0.308364	2.436258	0.000000	-0.065381	0.000000	0.000024	-0.000000	0.000000	0.000000
24.715418	14.499377	18.374216	-0.048895	0.097640	2.422633	0.000000	-0.002401	0.000000	0.000024	0.000000	0.000000	0.000000
25.012741	14.534564	18.321012	-0.069450	0.081304	2.421919	0.000000	-0.002401	0.000000	0.000024	0.000000	0.000000	0.000000
25.346075	14.588545	18.272915	-0.092494	0.062990	2.421119	0.000000	-0.002401	0.000000	0.000024	0.000000	0.000000	0.000000
25.679408	14.657890	18.237026	-0.115539	0.044675	2.420318	0.000000	-0.002401	0.000000	0.000024	0.000000	0.000000	0.000000
26.013991	14.742645	18.213651	-0.019068	-0.121466	2.419491	0.000000	-0.022030	0.000000	0.000024	0.000000	0.000000	0.000000
26.311314	14.759982	18.290805	-0.003055	-0.182875	2.412941	0.000000	-0.027945	0.000000	0.000024	0.000000	0.000000	0.000000
26.752274	14.944506	18.253751	-0.416993	0.266586	2.415725	0.000000	0.040585	0.000000	0.000025	0.000001	0.000000	0.000000
27.193234	15.501080	17.824162	-0.849982	0.703918	2.448800	0.000000	0.109577	0.000000	0.000025	0.000001	0.000000	0.000000
27.634194	16.455132	17.021586	-1.321804	1.109222	2.512545	0.000000	0.179818	0.000000	0.000026	0.000002	0.000000	0.000000
28.075154	17.850250	15.882538	-1.854015	1.464057	2.607684	0.000000	0.252107	0.000000	0.000027	0.000003	0.000000	0.000000
28.521114	19.774406	14.441683	-2.475905	1.753190	2.736905	0.000000	0.327710	0.000000	0.000028	0.000003	0.000000	0.000000
29.070174	22.220007	12.836386	-1.951884	1.187785	2.894178	0.000000	0.244333	0.000000	0.000030	0.000002	0.000000	0.000000
29.619234	24.010593	11.802150	-1.289992	0.706982	3.004413	0.000000	0.156623	0.000000	0.000031	0.000001	0.000000	0.000000
30.168294	25.019685	11.265308	-0.536981	0.276537	3.065657	0.000000	0.066134	0.000000	0.000031	0.000000	0.000000	0.000000
30.717354	25.176006	11.187621	0.253960	-0.134211	3.076821	0.000000	-0.025527	0.000000	0.000031	-0.000001	0.000000	0.000000
31.015927	25.067292	11.258370	0.175917	-0.131970	3.071599	0.000000	-0.017490	0.000000	0.000031	-0.000000	0.000000	0.000000
31.349260	24.954583	11.356391	0.162208	-0.162093	3.065769	0.000000	-0.017490	0.000000	0.000031	-0.000000	0.000000	0.000000
31.682593	24.851014	11.474494	0.148499	-0.192216	3.059939	0.000000	-0.017490	0.000000	0.000031	-0.000000	0.000000	0.000000
32.017177	24.756248	11.613235	0.134739	-0.222453	3.054088	0.000000	-0.017490	0.000000	0.000031	-0.000000	0.000000	0.000000
32.314499	24.679762	11.753505	0.058043	-0.218620	3.048888	0.000000	-0.009526	0.000000	0.000030	-0.000000	0.000000	0.000000
32.863559	24.193145	12.232744	0.822982	-0.659368	3.018783	0.000000	-0.099975	0.000000	0.000030	-0.000001	0.000000	0.000000
33.412619	22.893639	13.218774	1.529789	-1.147082	2.939430	0.000000	-0.188652	0.000000	0.000029	-0.000002	0.000000	0.000000
33.961679	20.873035	14.781827	2.128539	-1.716501	2.812237	0.000000	-0.273982	0.000000	0.000027	-0.000003	0.000000	0.000000
34.510739	18.274058	17.033237	2.576940	-2.408182	2.639461	0.000000	-0.354452	0.000000	0.000025	-0.000004	0.000000	0.000000
34.956699	16.253189	19.047077	1.970796	-2.088704	2.497729	0.000000	-0.281539	0.000000	0.000024	-0.000003	0.000000	0.000000
35.397659	14.746187	20.713031	1.459713	-1.674935	2.388961	0.000000	-0.212261	0.000000	0.000022	-0.000003	0.000000	0.000000
35.838619	13.658920	21.978947	1.015320	-1.184958	2.310179	0.000000	-0.145400	0.000000	0.000021	-0.000002	0.000000	0.000000
36.279579	12.941714	22.787227	0.617314	-0.641066	2.260488	0.000000	-0.080196	0.000000	0.000020	-0.000002	0.000000	0.000000
36.721789	12.561106	23.101405	0.278204	-0.124701	2.239294	0.000000	-0.021395	0.000000	0.000020	-0.000001	0.000000	0.000000
37.019112	12.403255	23.179444	0.252702	-0.137771	2.232933	0.000000	-0.021395	0.000000	0.000019	-0.000001	0.000000	0.000000
37.352445	12.244317	23.276176	0.224111	-0.152425	2.225802	0.000000	-0.021395	0.000000	0.000019	-0.000001	0.000000	0.000000
37.685779	12.104440	23.382678	0.195520	-0.167078	2.218671	0.000000	-0.021395	0.000000	0.000018	-0.000001	0.000000	0.000000
38.020362	11.983206	23.499402	0.166822	-0.181787	2.211513	0.000000	-0.021395	0.000000	0.000018	-0.000001	0.000000	0.000000
38.317684	11.891588	23.611387	0.170477	-0.252750	2.205152	0.000000	-0.026802	0.000000	0.000018	-0.000001	0.000000	0.000000
38.758644	11.892812	23.572752	-0.173264	0.340033	2.207259	0.000000	0.036363	0.000000	0.000017	-0.000001	0.000000	0.000000
39.199604	12.199520	23.016180	-0.524920	0.917345	2.237283	0.000000	0.099942	0.000000	0.000017	-0.000000	0.000000	0.000000
39.640564	12.825724	21.966996	-0.900559	1.452918	2.295568	0.000000	0.164660	0.000000	0.000017	-0.000000	0.000000	0.000000
40.081524	13.800033	20.472937	-1.317342	1.922385	2.382775	0.000000	0.231252	0.000000	0.000017	0.000000	0.000000	0.000000
40.527484	15.184540	18.579401	-1.798139	2.305672	2.501371	0.000000	0.300884	0.000000	0.000017	0.000001	0.000000	0.000000
41.076544	16.951203	16.451464	-1.400427	1.592804	2.646049	0.000000	0.225343	0.000000	0.000017	0.000000	0.000000	0.000000
41.625604	18.223894	15.039821	-0.903796	0.993388	2.748091	0.000000	0.145805	0.000000	0.000017	-0.000000	0.000000	0.000000
42.174664	18.912715	14.243925	-0.343325	0.464729	2.805686	0.000000	0.063681	0.000000	0.000017	-0.000001	0.000000	0.000000
42.723724	18.969013	14.007086	0.241397	-0.030828	2.817813	0.000000	-0.019573	0.000000	0.000016	-0.000001	0.000000	0.000000
43.022297	18.859328	14.010008	0.175522	-0.015552	2.814168	0.000000	-0.012211	0.000000	0.000016	-0.000001	0.000000	0.000000
43.502297	18.703420	14.041387	0.149286	-0.049821	2.808307	0.000000	-0.012211	0.000000	0.000015	-0.000001	0.000000	0.000000
43.982297	18.572699	14.105665	0.123050	-0.084091	2.802446	0.000000	-0.012211	0.000000	0.000015	-0.000001	0.000000	0.000000
44.462297	18.467164	14.202842	0.096815	-0.118360	2.796586	0.000000	-0.012211	0.000000	0.000014	-0.000001	0.000000	0.000000
44.942297	18.386815	14.332917	0.070579	-0.152630	2.790725	0.000000	-0.012211	0.000000	0.000013	-0.000001	0.000000	0.000000
45.423547	18.331768	14.496179	-0.046551	-0.115166	2.784866	0.000000	0.001587	0.000000	0.000013	-0.000001	0.000000	0.000000
45.720870	18.364282	14.570840	-0.110783	-0.097881	2.785338	0.000000	0.008863	0.000000	0.000012	-0.000001	0.000000	0.000000
46.269930	18.176726	14.960071	0.450354	-0.615207	2.767637	0.000000	-0.073248	0.000000	0.000011	-0.000002	0.000000	0.000000
46.818990	17.386875	15.937973	0.979680	-1.176353	2.705144	0.000000	-0.154060	0.000000	0.000010	-0.000002	0.000000	0.000000
47.368050	16.050521	17.574199	1.439806	-1.821287	2.598965	0.000000	-0.232139	0.000000	0.000009	-0.000002	0.000000	0.000000
47.917110	14.262056	19.985295	1.798232	-2.595948	2.450986	0.000000	-0.306101	0.000000	0.000008	-0.000003	0.000000	0.000000
48.363070	12.870378	22.128878	1.333460	-2.190516	2.329768	0.000000	-0.237810	0.000000	0.000007	-0.000002	0.000000	0.000000
48.804030	11.874570	23.845103	0.933380	-1.686694	2.239362	0.000000	-0.172625	0.000000	0.000006	-0.000002	0.000000	0.000000
49.244990	11.211533	25.081330	0.575944	-1.106128	2.177240	0.000000	-0.109407	0.000000	0.000005	-0.000002	0.000000	0.000000
49.685950	10.850976	25.781311	0.244821	-0.475235	2.142694	0.000000	-0.047434	0.000000	0.000004	-0.000002	0.000000	0.000000
50.128160	10.776547	25.912914	-0.048806	0.113689	2.135341	0.000000	0.008762	0.000000	0.000003	-0.000002	0.000000	0.000000
50.425482	10.813792	25.848765	-0.076462	0.102066	2.137946	0.000000	0.008762	0.000000	0.000003	-0.000002	0.000000	0.000000
50.758816	10.875102	25.785064	-0.107467	0.089037	2.140868	0.000000	0.008762	0.000000	0.000002	-0.000002	0.000000	0.000000
51.092149	10.957081	25.730050	-0.138472	0.076007	2.143789	0.000000	0.008762	0.000000	0.000001	-0.000002	0.000000	0.000000
51.426732	11.059931	25.684086	-0.079868	-0.145434	2.146700	0.000000	-0.008653	0.000000	0.000001	-0.000002	0.000000	0.000000
51.724055	11.115468	25.774082	-0.079664	-0.220461	2.144128	0.000000	-0.013911	0.000000	0.000000	-0.000002	0.000000	0.000000
52.165015	11.330888	25.681739	-0.410716	0.429077	2.151582	0.000000	0.047750	0.000000	-0.000001	-0.000002	0.000000	0.000000
52.605975	11.845409	25.023009	-0.760532	1.059092	2.186321	0.000000	0.109954	0.000000	-0.000002	-0.000002	0.000000	0.000000
53.046935	12.682538	23.827864	-1.145095	1.640920	2.248738	0.000000	0.173411	0.000000	-0.000002	-0.000002	0.000000	0.000000
53.487895	13.880522	22.150682	-1.581974	2.148087	2.339547	0.000000	0.238843	0.000000	-0.000003	-0.000002	0.000000	0.000000
53.933855	15.514631	20.042699	-2.095353	2.558856	2.461284	0.000000	0.307393	0.000000	-0.000004	-0.000002	0.000000	0.000000
54.482915	17.618561	17.670610	-1.713842	1.786918	2.609882	0.000000	0.233088	0.000000	-0.000005	-0.000002	0.000000	0.000000
55.031975	19.234188	16.071755	-1.211274	1.142258	2.716485	0.000000	0.154648	0.000000	-0.000007	-0.000002	0.000000	0.000000
55.581035	20.247393	15.132250	-0.623148	0.578958	2.779202	0.000000	0.073465	0.000000	-0.000007	-0.000002	0.000000	0.000000
56.130095	20.586607	14.785177	0.008995	0.056896	2.796921	0.000000	-0.009021	0.000000	-0.000008	-0.000001	0.000000	0.000000
56.428668	20.617697	14.734217	-0.059331	0.075151	2.796410	0.000000	-0.001713	0.000000	-0.000009	-0.000001	0.000000	0.000000
56.762001	20.662659	14.691699	-0.075555	0.052401	2.795840	0.000000	-0.001713	0.000000	-0.000009	-0.000001	0.000000	0.000000
57.095334	20.718437	14.664349	-0.091779	0.029650	2.795269	0.000000	-0.001713	0.000000	-0.000010	-0.000001	0.000000	0.000000
57.429918	20.785301	14.652149	-0.108064	0.006813	2.794697	0.000000	-0.001713	0.000000	-0.000010	-0.000001	0.000000	0.000000
57.727240	20.853864	14.654131	-0.177028	0.024812	2.794188	0.000000	0.005589	0.000000	-0.000010	-0.000001	0.000000	0.000000
58.276300	20.692533	14.908214	0.469118	-0.490302	2.774616	0.000000	-0.076779	0.000000	-0.000011	-0.000001	0.000000	0.000000
58.825360	19.835734	15.743697	1.082128	-1.040340	2.710127	0.000000	-0.157785	0.000000	-0.000012	-0.000001	0.000000	0.000000
59.374420	18.343987	17.220089	1.618701	-1.664479	2.601864	0.000000	-0.235992	0.000000	-0.000012	-0.000000	0.000000	0.000000
59.923480	16.322661	19.442553	2.040938	-2.407175	2.451749	0.000000	-0.310013	0.000000	-0.000012	0.000000	0.000000	0.000000
60.369440	14.740638	21.417845	1.519079	-2.003433	2.328787	0.000000	-0.241725	0.000000	-0.000012	-0.000000	0.000000	0.000000
60.810400	13.602912	22.973008	1.070821	-1.509914	2.236645	0.000000	-0.176588	0.000000	-0.000012	-0.000001	0.000000	0.000000
61.251360	12.837528	24.060855	0.671486	-0.947695	2.172756	0.000000	-0.113462	0.000000	-0.000012	-0.000001	0.000000	0.000000
61.692320	12.409518	24.631889	0.302829	-0.342356	2.136392	0.000000	-0.051628	0.000000	-0.000013	-0.000001	0.000000	0.000000
62.134530	12.299381	24.659583	-0.021929	0.218025	2.127144	0.000000	0.004401	0.000000	-0.000013	-0.000001	0.000000	0.000000
62.431853	12.319612	24.533691	-0.046114	0.205394	2.128453	0.000000	0.004401	0.000000	-0.000014	-0.000001	0.000000	0.000000
62.765186	12.359393	24.401482	-0.073229	0.191234	2.129921	0.000000	0.004401	0.000000	-0.000014	-0.000001	0.000000	0.000000
63.098520	12.417251	24.278712	-0.100344	0.177074	2.131388	0.000000	0.004401	0.000000	-0.000015	-0.000001	0.000000	0.000000
63.433103	12.493504	24.164975	-0.127560	0.162861	2.132861	0.000000	0.004401	0.000000	-0.000015	-0.000001	0.000000	0.000000
63.730426	12.576547	24.071886	-0.120899	0.091191	2.134170	0.000000	-0.000834	0.000000	-0.000016	-0.000001	0.000000	0.000000
64.171386	12.843374	23.726375	-0.486501	0.689370	2.147345	0.000000	0.060644	0.000000	-0.000016	-0.000002	0.000000	0.000000
64.612346	13.441177	22.865187	-0.874329	1.256183	2.187755	0.000000	0.122812	0.000000	-0.000017	-0.000002	0.000000	0.000000
65.053306	14.397268	21.527505	-1.302102	1.765842	2.255862	0.000000	0.186379	0.000000	-0.000019	-0.000003	0.000000	0.000000
65.494266	15.755329	19.774192	-1.789365	2.195156	2.352440	0.000000	0.252069	0.000000	-0.000020	-0.000003	0.000000	0.000000
65.940226	17.600566	17.660221	-2.363070	2.525342	2.480163	0.000000	0.321031	0.000000	-0.000021	-0.000004	0.000000	0.000000
66.489286	19.966157	15.295426	-1.919867	1.807070	2.636060	0.000000	0.245996	0.000000	-0.000023	-0.000003	0.000000	0.000000
67.038346	21.767260	13.644495	-1.341055	1.217511	2.749498	0.000000	0.166597	0.000000	-0.000025	-0.000002	0.000000	0.000000
67.587406	22.876652	12.589836	-0.667517	0.714674	2.818464	0.000000	0.084243	0.000000	-0.000026	-0.000001	0.000000	0.000000
68.136466	23.215974	12.056326	0.053170	0.262740	2.841734	0.000000	0.000395	0.000000	-0.000026	-0.000001	0.000000	0.000000
68.435038	23.224294	11.888652	-0.020364	0.267339	2.844070	0.000000	0.007822	0.000000	-0.000027	-0.000001	0.000000	0.000000
68.768372	23.242656	11.720439	-0.034722	0.237297	2.846677	0.000000	0.007822	0.000000	-0.000027	-0.000001	0.000000	0.000000
69.101705	23.270591	11.572255	-0.049081	0.207256	2.849285	0.000000	0.007822	0.000000	-0.000027	-0.000001	0.000000	0.000000
69.436288	23.308257	11.443656	-0.063494	0.177101	2.851902	0.000000	0.007822	0.000000	-0.000027	-0.000001	0.000000	0.000000
69.733611	23.349821	11.346311	-0.137324	0.179957	2.854228	0.000000	0.015281	0.000000	-0.000027	-0.000001	0.000000	0.000000
70.282671	23.099587	11.375992	0.590377	-0.234335	2.839429	0.000000	-0.069109	0.000000	-0.000028	0.000000	0.000000	0.000000
