#ParticleID	Turn	x[m]	xp	y[m]	yp	z[m]	dE[GeV]# s	beta_x	beta_y	alpha_x	alpha_y	D_x	D_y	D_px	D_py	orbit_x	orbit_px	orbit_y	orbit_py
0.300000	11.827817	24.962616	-0.012789	-0.027712	2.618196	0.000000	-0.000019	0.000000	-0.000000	0.000000	0.000000	0.000000
0.601250	11.843197	24.982951	-0.038263	-0.039789	2.618190	0.000000	-0.000019	0.000000	-0.000000	0.000000	0.000000	0.000000
0.898573	11.873425	25.010155	-0.034287	-0.113041	2.618184	0.000000	-0.006439	0.000000	-0.000000	0.000000	0.000000	0.000000
1.339533	12.055967	24.832450	-0.381249	0.514505	2.631638	0.000000	0.067520	0.000000	-0.000000	0.000000	0.000000	0.000000
1.780493	12.550996	24.109547	-0.745628	1.118642	2.677844	0.000000	0.142248	0.000000	-0.000000	0.000000	0.000000	0.000000
2.221453	13.381130	22.874337	-1.144073	1.671881	2.757327	0.000000	0.218596	0.000000	0.000000	0.000000	0.000000	0.000000
2.662413	14.584293	21.183023	-1.594787	2.149051	2.870992	0.000000	0.297433	0.000000	0.000000	0.000000	0.000000	0.000000
3.108373	16.236250	19.087750	-2.122661	2.529572	3.021997	0.000000	0.380148	0.000000	0.000000	0.000000	0.000000	0.000000
3.657433	18.354569	16.734541	-1.712585	1.781614	3.205449	0.000000	0.287110	0.000000	0.000001	0.000000	0.000000	0.000000
4.206493	19.953080	15.128592	-1.181540	1.160557	3.336343	0.000000	0.188980	0.000000	0.000001	0.000000	0.000000	0.000000
4.755553	20.918872	14.155516	-0.567038	0.622163	3.412356	0.000000	0.087497	0.000000	0.000001	0.000000	0.000000	0.000000
5.304613	21.183726	13.746001	0.087517	0.128085	3.432140	0.000000	-0.015537	0.000000	0.000001	0.000000	0.000000	0.000000
5.603185	21.168729	13.654729	0.018059	0.141696	3.430178	0.000000	-0.006570	0.000000	0.000001	0.000000	0.000000	0.000000
5.936519	21.161940	13.568566	0.002308	0.116794	3.427988	0.000000	-0.006570	0.000000	0.000001	0.000000	0.000000	0.000000
6.269852	21.165652	13.499004	-0.013444	0.091892	3.425798	0.000000	-0.006570	0.000000	0.000001	0.000000	0.000000	0.000000
6.604435	21.179938	13.445876	-0.029255	0.066897	3.423600	0.000000	-0.006570	0.000000	0.000001	0.000000	0.000000	0.000000
6.901758	21.201512	13.412699	-0.098700	0.079730	3.421647	0.000000	0.002370	0.000000	0.000001	0.000000	0.000000	0.000000
7.450818	20.948496	13.585702	0.556788	-0.396678	3.394747	0.000000	-0.100209	0.000000	0.000001	0.000000	0.000000	0.000000
7.999878	19.993113	14.294210	1.172946	-0.901341	3.311931	0.000000	-0.201011	0.000000	0.000002	0.000000	0.000000	0.000000
8.548938	18.402846	15.588690	1.706253	-1.470204	3.174668	0.000000	-0.298247	0.000000	0.000002	0.000000	0.000000	0.000000
9.097998	16.290024	17.561344	2.119040	-2.143787	2.985392	0.000000	-0.390193	0.000000	0.000002	0.000000	0.000000	0.000000
9.543958	14.641533	19.319133	1.590602	-1.781139	2.829687	0.000000	-0.308489	0.000000	0.000002	0.000000	0.000000	0.000000
9.984918	13.442380	20.700104	1.139130	-1.338681	2.710902	0.000000	-0.230782	0.000000	0.000002	0.000000	0.000000	0.000000
10.425878	12.617022	21.662410	0.739702	-0.835313	2.625770	0.000000	-0.155704	0.000000	0.000002	0.000000	0.000000	0.000000
10.866838	12.127750	22.162268	0.374069	-0.293940	2.573324	0.000000	-0.082399	0.000000	0.000002	0.000000	0.000000	0.000000
11.309048	11.952074	22.176417	0.054731	0.206366	2.552943	0.000000	-0.016293	0.000000	0.000002	0.000000	0.000000	0.000000
11.606371	11.926947	22.057859	0.029780	0.192388	2.548099	0.000000	-0.016293	0.000000	0.000002	0.000000	0.000000	0.000000
12.086371	11.917693	21.883998	-0.010501	0.169821	2.540279	0.000000	-0.016293	0.000000	0.000002	0.000000	0.000000	0.000000
12.566371	11.947108	21.731802	-0.050782	0.147255	2.532458	0.000000	-0.016293	0.000000	0.000002	0.000000	0.000000	0.000000
13.046371	12.015194	21.601269	-0.091062	0.124688	2.524637	0.000000	-0.016293	0.000000	0.000002	0.000000	0.000000	0.000000
13.526371	12.121948	21.492400	-0.131343	0.102122	2.516817	0.000000	-0.016293	0.000000	0.000003	0.000000	0.000000	0.000000
14.007621	12.267801	21.404996	-0.171729	0.079497	2.508976	0.000000	-0.016293	0.000000	0.000003	0.000000	0.000000	0.000000
14.304943	12.377337	21.361879	-0.166327	0.013135	2.504132	0.000000	-0.022433	0.000000	0.000003	0.000000	0.000000	0.000000
14.745903	12.682716	21.116466	-0.528832	0.541291	2.509870	0.000000	0.048486	0.000000	0.000003	0.000000	0.000000	0.000000
15.186863	13.317201	20.414383	-0.915498	1.044819	2.546973	0.000000	0.119957	0.000000	0.000003	0.000000	0.000000	0.000000
15.627823	14.309780	19.287574	-1.343990	1.500809	2.615863	0.000000	0.192795	0.000000	0.000003	0.000000	0.000000	0.000000
16.068783	15.705800	17.787310	-1.833886	1.888513	2.717325	0.000000	0.267829	0.000000	0.000004	0.000001	0.000000	0.000000
16.514743	17.592697	15.960347	-2.412324	2.191040	2.854208	0.000000	0.346375	0.000000	0.000004	0.000001	0.000000	0.000000
17.063803	20.015934	13.920265	-1.974978	1.546482	3.020660	0.000000	0.259049	0.000000	0.000004	0.000001	0.000000	0.000000
17.612863	21.879001	12.523706	-1.398129	1.012077	3.137830	0.000000	0.167128	0.000000	0.000004	0.000000	0.000000	0.000000
18.161923	23.050300	11.671196	-0.722523	0.549760	3.203641	0.000000	0.072243	0.000000	0.000005	0.000000	0.000000	0.000000
18.710983	23.447097	11.302013	0.004118	0.126600	3.216926	0.000000	-0.023924	0.000000	0.000005	0.000000	0.000000	0.000000
19.009556	23.485034	11.216861	-0.069918	0.129068	3.212292	0.000000	-0.015519	0.000000	0.000005	0.000000	0.000000	0.000000
19.342889	23.536400	11.140886	-0.084181	0.098855	3.207119	0.000000	-0.015519	0.000000	0.000005	0.000000	0.000000	0.000000
19.676223	23.597275	11.085053	-0.098444	0.068643	3.201947	0.000000	-0.015519	0.000000	0.000005	0.000000	0.000000	0.000000
20.010806	23.668234	11.049129	-0.230026	0.093062	3.196774	0.000000	0.000320	0.000000	0.000005	0.000000	0.000000	0.000000
20.308129	23.808950	11.001860	-0.305458	0.094664	3.196869	0.000000	0.008672	0.000000	0.000005	0.000000	0.000000	0.000000
20.857189	23.733744	11.120397	0.441620	-0.311829	3.175413	0.000000	-0.086712	0.000000	0.000005	-0.000000	0.000000	0.000000
21.406249	22.850500	11.694816	1.157505	-0.740532	3.101931	0.000000	-0.180558	0.000000	0.000005	-0.000000	0.000000	0.000000
21.955309	21.221606	12.766031	1.791629	-1.221983	2.977727	0.000000	-0.271202	0.000000	0.000005	-0.000000	0.000000	0.000000
22.504369	18.962119	14.410344	2.299202	-1.790472	2.805003	0.000000	-0.357035	0.000000	0.000005	-0.000000	0.000000	0.000000
22.950329	17.181569	15.886495	1.707515	-1.505615	2.663072	0.000000	-0.279831	0.000000	0.000004	-0.000000	0.000000	0.000000
23.391289	15.904960	17.063365	1.198537	-1.153111	2.555998	0.000000	-0.206269	0.000000	0.000004	-0.000000	0.000000	0.000000
23.832249	15.051477	17.904944	0.744317	-0.748141	2.480815	0.000000	-0.135055	0.000000	0.000004	-0.000000	0.000000	0.000000
24.273209	14.582127	18.372940	0.324102	-0.309132	2.436665	0.000000	-0.065380	0.000000	0.000004	-0.000000	0.000000	0.000000
24.715418	14.475582	18.445813	-0.045894	0.098641	2.423043	0.000000	-0.002392	0.000000	0.000004	0.000000	0.000000	0.000000
25.012741	14.508993	18.391996	-0.066477	0.082366	2.422332	0.000000	-0.002392	0.000000	0.000004	0.000000	0.000000	0.000000
25.346075	14.561003	18.343167	-0.089553	0.064119	2.421534	0.000000	-0.002392	0.000000	0.000004	0.000000	0.000000	0.000000
25.679408	14.628397	18.306504	-0.112629	0.045872	2.420737	0.000000	-0.002392	0.000000	0.000004	0.000000	0.000000	0.000000
26.013991	14.711216	18.282306	-0.016444	-0.120758	2.419913	0.000000	-0.022023	0.000000	0.000004	0.000000	0.000000	0.000000
26.311314	14.727005	18.359020	-0.000547	-0.182278	2.413365	0.000000	-0.027941	0.000000	0.000004	0.000000	0.000000	0.000000
26.752274	14.908953	18.320625	-0.413636	0.269019	2.416153	0.000000	0.040600	0.000000	0.000004	0.000000	0.000000	0.000000
27.193234	15.462138	17.888119	-0.845624	0.708077	2.449238	0.000000	0.109603	0.000000	0.000004	0.000000	0.000000	0.000000
27.634194	16.411833	17.081181	-1.316246	1.114917	2.512997	0.000000	0.179855	0.000000	0.000004	0.000000	0.000000	0.000000
28.075154	17.801428	15.936526	-1.847003	1.471029	2.608156	0.000000	0.252156	0.000000	0.000005	0.000000	0.000000	0.000000
28.521114	19.718556	14.488996	-2.467103	1.761125	2.737402	0.000000	0.327772	0.000000	0.000005	0.000001	0.000000	0.000000
29.070174	22.155235	12.876030	-1.944536	1.193901	2.894706	0.000000	0.244378	0.000000	0.000005	0.000000	0.000000	0.000000
29.619234	23.938791	11.835871	-1.284617	0.711716	3.004962	0.000000	0.156651	0.000000	0.000005	0.000000	0.000000	0.000000
30.168294	24.943244	11.294432	-0.533959	0.280225	3.066216	0.000000	0.066144	0.000000	0.000005	0.000000	0.000000	0.000000
30.717354	25.097644	11.213146	0.254416	-0.131306	3.077381	0.000000	-0.025535	0.000000	0.000005	-0.000000	0.000000	0.000000
31.015927	24.988556	11.282093	0.176522	-0.128913	3.072158	0.000000	-0.017495	0.000000	0.000005	-0.000000	0.000000	0.000000
31.349260	24.875459	11.378047	0.162767	-0.158950	3.066326	0.000000	-0.017495	0.000000	0.000005	-0.000000	0.000000	0.000000
31.682593	24.771533	11.494026	0.149012	-0.188986	3.060495	0.000000	-0.017495	0.000000	0.000005	-0.000000	0.000000	0.000000
32.017177	24.676438	11.630576	0.135206	-0.219135	3.054641	0.000000	-0.017495	0.000000	0.000005	-0.000000	0.000000	0.000000
32.314499	24.599687	11.768849	0.058665	-0.215178	3.049439	0.000000	-0.009528	0.000000	0.000005	-0.000000	0.000000	0.000000
32.863559	24.113851	12.244464	0.820947	-0.656170	3.019328	0.000000	-0.099995	0.000000	0.000005	-0.000000	0.000000	0.000000
33.412619	22.817981	13.227010	1.525242	-1.143899	2.939959	0.000000	-0.188689	0.000000	0.000005	-0.000000	0.000000	0.000000
33.961679	20.803610	14.786471	2.121801	-1.713105	2.812740	0.000000	-0.274035	0.000000	0.000005	-0.000001	0.000000	0.000000
34.510739	18.213025	17.033925	2.568487	-2.404332	2.639929	0.000000	-0.354521	0.000000	0.000004	-0.000001	0.000000	0.000000
34.956699	16.198849	19.044131	1.964189	-2.084438	2.498167	0.000000	-0.281597	0.000000	0.000004	-0.000001	0.000000	0.000000
35.397659	14.696983	20.706212	1.454633	-1.670452	2.389375	0.000000	-0.212308	0.000000	0.000004	-0.000000	0.000000	0.000000
35.838619	13.613611	21.968153	1.011535	-1.180461	2.310574	0.000000	-0.145437	0.000000	0.000004	-0.000000	0.000000	0.000000
36.279579	12.899238	22.772536	0.614652	-0.636761	2.260869	0.000000	-0.080222	0.000000	0.000004	-0.000000	0.000000	0.000000
36.721789	12.520534	23.083065	0.276447	-0.120747	2.239664	0.000000	-0.021413	0.000000	0.000003	-0.000000	0.000000	0.000000
37.019112	12.363746	23.158752	0.250885	-0.133816	2.233298	0.000000	-0.021413	0.000000	0.000003	-0.000000	0.000000	0.000000
37.352445	12.206042	23.252847	0.222228	-0.148467	2.226160	0.000000	-0.021413	0.000000	0.000003	-0.000000	0.000000	0.000000
37.685779	12.067442	23.356708	0.193570	-0.163118	2.219023	0.000000	-0.021413	0.000000	0.000003	-0.000000	0.000000	0.000000
38.020362	11.947536	23.470782	0.164805	-0.177824	2.211858	0.000000	-0.021413	0.000000	0.000003	-0.000000	0.000000	0.000000
38.317684	11.857135	23.580409	0.168320	-0.248717	2.205492	0.000000	-0.026821	0.000000	0.000003	-0.000000	0.000000	0.000000
38.758644	11.859920	23.538591	-0.174658	0.343190	2.207591	0.000000	0.036352	0.000000	0.000003	-0.000000	0.000000	0.000000
39.199604	12.167546	22.979677	-0.525616	0.919482	2.237612	0.000000	0.099940	0.000000	0.000003	-0.000000	0.000000	0.000000
39.640564	12.794068	21.929095	-0.900588	1.453938	2.295897	0.000000	0.164665	0.000000	0.000003	0.000000	0.000000	0.000000
40.081524	13.768111	20.434648	-1.316706	1.922242	2.383109	0.000000	0.231266	0.000000	0.000003	0.000000	0.000000	0.000000
40.527484	15.151741	18.541764	-1.796804	2.304363	2.501713	0.000000	0.300907	0.000000	0.000003	0.000000	0.000000	0.000000
41.076544	16.917621	16.414721	-1.400344	1.592474	2.646401	0.000000	0.225355	0.000000	0.000003	0.000000	0.000000	0.000000
41.625604	18.190913	15.002918	-0.904970	0.994013	2.748446	0.000000	0.145805	0.000000	0.000003	-0.000000	0.000000	0.000000
42.174664	18.881681	14.205793	-0.345674	0.466354	2.806038	0.000000	0.063670	0.000000	0.000003	-0.000000	0.000000	0.000000
42.723724	18.941130	13.966571	0.238039	-0.028088	2.818156	0.000000	-0.019595	0.000000	0.000003	-0.000000	0.000000	0.000000
43.022297	18.833412	13.967936	0.172227	-0.012976	2.814503	0.000000	-0.012232	0.000000	0.000003	-0.000000	0.000000	0.000000
43.502297	18.680670	13.996891	0.145985	-0.047346	2.808632	0.000000	-0.012232	0.000000	0.000003	-0.000000	0.000000	0.000000
43.982297	18.553122	14.058841	0.119742	-0.081716	2.802761	0.000000	-0.012232	0.000000	0.000003	-0.000000	0.000000	0.000000
44.462297	18.450766	14.153786	0.093499	-0.116087	2.796890	0.000000	-0.012232	0.000000	0.000003	-0.000000	0.000000	0.000000
44.942297	18.373603	14.281727	0.067257	-0.150457	2.791019	0.000000	-0.012232	0.000000	0.000003	-0.000000	0.000000	0.000000
45.423547	18.321757	14.442946	-0.049830	-0.113357	2.785149	0.000000	0.001567	0.000000	0.000002	-0.000000	0.000000	0.000000
45.720870	18.356226	14.516553	-0.114059	-0.096279	2.785615	0.000000	0.008845	0.000000	0.000002	-0.000000	0.000000	0.000000
46.269930	18.172387	14.903109	0.446901	-0.611909	2.767902	0.000000	-0.073274	0.000000	0.000002	-0.000000	0.000000	0.000000
46.818990	17.386315	15.876356	0.976294	-1.171124	2.705390	0.000000	-0.154095	0.000000	0.000002	-0.000000	0.000000	0.000000
47.368050	16.053532	17.505617	1.436726	-1.813755	2.599190	0.000000	-0.232182	0.000000	0.000002	-0.000000	0.000000	0.000000
47.917110	14.268181	19.906939	1.795675	-2.585576	2.451184	0.000000	-0.306150	0.000000	0.000002	-0.000000	0.000000	0.000000
48.363070	12.878718	22.042013	1.331031	-2.181889	2.329945	0.000000	-0.237855	0.000000	0.000001	-0.000000	0.000000	0.000000
48.804030	11.885038	23.751545	0.930964	-1.680198	2.239519	0.000000	-0.172666	0.000000	0.000001	-0.000000	0.000000	0.000000
49.244990	11.224167	24.983096	0.573431	-1.102060	2.177379	0.000000	-0.109443	0.000000	0.000001	-0.000000	0.000000	0.000000
49.685950	10.865912	25.680632	0.242096	-0.473779	2.142817	0.000000	-0.047467	0.000000	0.000001	-0.000000	0.000000	0.000000
50.128160	10.794033	25.812134	-0.051825	0.112711	2.135449	0.000000	0.008732	0.000000	0.000001	-0.000000	0.000000	0.000000
50.425482	10.833062	25.748579	-0.079444	0.101046	2.138046	0.000000	0.008732	0.000000	0.000001	-0.000000	0.000000	0.000000
50.758816	10.896346	25.685574	-0.110408	0.087968	2.140956	0.000000	0.008732	0.000000	0.000001	-0.000000	0.000000	0.000000
51.092149	10.980273	25.631288	-0.141372	0.074890	2.143867	0.000000	0.008732	0.000000	0.000000	-0.000000	0.000000	0.000000
51.426732	11.085049	25.586085	-0.082523	-0.145803	2.146767	0.000000	-0.008684	0.000000	0.000000	-0.000000	0.000000	0.000000
51.724055	11.142150	25.676315	-0.082204	-0.220637	2.144185	0.000000	-0.013942	0.000000	0.000000	-0.000000	0.000000	0.000000
52.165015	11.360097	25.585269	-0.413928	0.426324	2.151626	0.000000	0.047720	0.000000	0.000000	-0.000000	0.000000	0.000000
52.605975	11.877801	24.930062	-0.764563	1.053887	2.186350	0.000000	0.109925	0.000000	-0.000000	-0.000000	0.000000	0.000000
53.046935	12.718912	23.740505	-1.150129	1.633499	2.248755	0.000000	0.173383	0.000000	-0.000000	-0.000000	0.000000	0.000000
53.487895	13.921860	22.070723	-1.588240	2.138788	2.339550	0.000000	0.238815	0.000000	-0.000000	-0.000000	0.000000	0.000000
53.933855	15.562219	19.971721	-2.103151	2.548099	2.461274	0.000000	0.307365	0.000000	-0.000001	-0.000000	0.000000	0.000000
54.482915	17.674084	17.609893	-1.720408	1.778878	2.609856	0.000000	0.233060	0.000000	-0.000001	-0.000000	0.000000	0.000000
55.031975	19.296029	16.018645	-1.216145	1.136362	2.716443	0.000000	0.154622	0.000000	-0.000001	-0.000000	0.000000	0.000000
55.581035	20.313488	15.084635	-0.625979	0.574786	2.779146	0.000000	0.073440	0.000000	-0.000001	-0.000000	0.000000	0.000000
56.130095	20.654593	14.741337	0.008404	0.054152	2.796850	0.000000	-0.009044	0.000000	-0.000001	-0.000000	0.000000	0.000000
56.428668	20.686126	14.692100	-0.060049	0.072240	2.796332	0.000000	-0.001736	0.000000	-0.000001	-0.000000	0.000000	0.000000
56.762001	20.731549	14.651542	-0.076221	0.049434	2.795754	0.000000	-0.001736	0.000000	-0.000001	-0.000000	0.000000	0.000000
57.095334	20.787754	14.626188	-0.092393	0.026628	2.795175	0.000000	-0.001736	0.000000	-0.000001	-0.000000	0.000000	0.000000
57.429918	20.855011	14.616029	-0.108626	0.003736	2.794594	0.000000	-0.001736	0.000000	-0.000001	-0.000000	0.000000	0.000000
57.727240	20.923894	14.619855	-0.177722	0.021593	2.794078	0.000000	0.005564	0.000000	-0.000002	-0.000000	0.000000	0.000000
58.276300	20.762034	14.876950	0.470771	-0.492602	2.774493	0.000000	-0.076799	0.000000	-0.000002	-0.000000	0.000000	0.000000
58.825360	19.902177	15.714530	1.086011	-1.041883	2.709993	0.000000	-0.157801	0.000000	-0.000002	-0.000000	0.000000	0.000000
59.374420	18.405059	17.192255	1.624541	-1.665375	2.601723	0.000000	-0.236004	0.000000	-0.000002	-0.000000	0.000000	0.000000
59.923480	16.376429	19.415378	2.048321	-2.407488	2.451602	0.000000	-0.310020	0.000000	-0.000002	-0.000000	0.000000	0.000000
60.369440	14.788555	21.391375	1.524865	-2.004692	2.328636	0.000000	-0.241736	0.000000	-0.000002	-0.000000	0.000000	0.000000
60.810400	13.646325	22.948043	1.075287	-1.512055	2.236488	0.000000	-0.176603	0.000000	-0.000002	-0.000000	0.000000	0.000000
61.251360	12.877507	24.038132	0.674836	-0.950620	2.172591	0.000000	-0.113481	0.000000	-0.000002	-0.000000	0.000000	0.000000
61.692320	12.446977	24.612043	0.305216	-0.345932	2.136218	0.000000	-0.051652	0.000000	-0.000002	-0.000000	0.000000	0.000000
62.134530	12.335114	24.643130	-0.020311	0.214007	2.126958	0.000000	0.004373	0.000000	-0.000002	-0.000000	0.000000	0.000000
62.431853	12.354361	24.519624	-0.044424	0.201389	2.128259	0.000000	0.004373	0.000000	-0.000002	-0.000000	0.000000	0.000000
62.765186	12.392989	24.390079	-0.071459	0.187243	2.129716	0.000000	0.004373	0.000000	-0.000002	-0.000000	0.000000	0.000000
63.098520	12.449639	24.269966	-0.098493	0.173097	2.131174	0.000000	0.004373	0.000000	-0.000002	-0.000000	0.000000	0.000000
63.433103	12.524627	24.158886	-0.125628	0.158898	2.132638	0.000000	0.004373	0.000000	-0.000002	-0.000000	0.000000	0.000000
63.730426	12.606501	24.068149	-0.118827	0.087257	2.133938	0.000000	-0.000860	0.000000	-0.000003	-0.000000	0.000000	0.000000
64.171386	12.871783	23.726120	-0.485057	0.685440	2.147100	0.000000	0.060612	0.000000	-0.000003	-0.000000	0.000000	0.000000
64.612346	13.468565	22.868330	-0.873448	1.252436	2.187494	0.000000	0.122773	0.000000	-0.000003	-0.000000	0.000000	0.000000
65.053306	14.424112	21.533809	-1.301744	1.762447	2.255581	0.000000	0.186333	0.000000	-0.000003	-0.000000	0.000000	0.000000
65.494266	15.782081	19.783277	-1.789513	2.192268	2.352137	0.000000	0.252016	0.000000	-0.000003	-0.000001	0.000000	0.000000
65.940226	17.627681	17.671602	-2.363734	2.523099	2.479833	0.000000	0.320970	0.000000	-0.000004	-0.000001	0.000000	0.000000
66.489286	19.993397	15.309226	-1.919425	1.804882	2.635698	0.000000	0.245946	0.000000	-0.000004	-0.000001	0.000000	0.000000
67.038346	21.793418	13.660739	-1.339538	1.215221	2.749111	0.000000	0.166559	0.000000	-0.000004	-0.000000	0.000000	0.000000
67.587406	22.900601	12.608723	-0.665032	0.712119	2.818058	0.000000	0.084218	0.000000	-0.000004	-0.000000	0.000000	0.000000
68.136466	23.236740	12.078247	0.056448	0.259738	2.841318	0.000000	0.000383	0.000000	-0.000004	-0.000000	0.000000	0.000000
68.435038	23.243125	11.912307	-0.017117	0.264480	2.843649	0.000000	0.007808	0.000000	-0.000004	-0.000000	0.000000	0.000000
68.768372	23.259318	11.745966	-0.031462	0.234541	2.846252	0.000000	0.007808	0.000000	-0.000004	-0.000000	0.000000	0.000000
69.101705	23.285074	11.599586	-0.045808	0.204601	2.848854	0.000000	0.007808	0.000000	-0.000005	-0.000000	0.000000	0.000000
69.436288	23.320545	11.472728	-0.060207	0.174549	2.851467	0.000000	0.007808	0.000000	-0.000005	-0.000000	0.000000	0.000000
69.733611	23.360151	11.376874	-0.134040	0.177571	2.853788	0.000000	0.015264	0.000000	-0.000005	-0.000000	0.000000	0.000000
70.282671	23.106153	11.409654	0.593906	-0.237626	2.838984	0.000000	-0.069112	0.000000	-0.000005	0.000000	0.000000	0.000000
