#ParticleID	Turn	x[m]	xp	y[m]	yp	z[m]	dE[GeV]# s	beta_x	beta_y	alpha_x	alpha_y	D_x	D_y	D_px	D_py	orbit_x	orbit_px	orbit_y	orbit_py
0.300000	11.807816	25.043061	-0.010398	-0.027009	2.618138	0.000000	0.000002	0.000000	-0.000001	0.000002	0.000000	0.000000
0.601250	11.821767	25.062960	-0.035914	-0.039047	2.618138	0.000000	0.000002	0.000000	-0.000000	0.000002	0.000000	0.000000
0.898573	11.850610	25.089712	-0.032035	-0.112455	2.618138	0.000000	-0.006418	0.000000	0.000000	0.000002	0.000000	0.000000
1.339533	12.030920	24.910562	-0.378418	0.517181	2.631601	0.000000	0.067540	0.000000	0.000001	0.000002	0.000000	0.000000
1.780493	12.523153	24.184419	-0.742090	1.123286	2.677815	0.000000	0.142267	0.000000	0.000002	0.000002	0.000000	0.000000
2.221453	13.349796	22.944321	-1.139666	1.678282	2.757305	0.000000	0.218614	0.000000	0.000002	0.000002	0.000000	0.000000
2.662413	14.548618	21.246691	-1.589310	2.156917	2.870978	0.000000	0.297451	0.000000	0.000003	0.000002	0.000000	0.000000
3.108373	16.195116	19.143877	-2.115852	2.538548	3.021990	0.000000	0.380166	0.000000	0.000004	0.000002	0.000000	0.000000
3.657433	18.306498	16.782069	-1.706832	1.788390	3.205452	0.000000	0.287128	0.000000	0.000005	0.000002	0.000000	0.000000
4.206493	19.899463	15.169661	-1.177250	1.165615	3.336354	0.000000	0.188998	0.000000	0.000006	0.000002	0.000000	0.000000
4.755553	20.861491	14.191803	-0.564513	0.625864	3.412376	0.000000	0.087514	0.000000	0.000007	0.000001	0.000000	0.000000
5.304613	21.124629	13.778846	0.088099	0.130692	3.432169	0.000000	-0.015521	0.000000	0.000007	0.000001	0.000000	0.000000
5.603185	21.109203	13.685956	0.018758	0.144420	3.430212	0.000000	-0.006554	0.000000	0.000008	0.000001	0.000000	0.000000
5.936519	21.101964	13.597964	0.002962	0.119557	3.428027	0.000000	-0.006554	0.000000	0.000008	0.000001	0.000000	0.000000
6.269852	21.105255	13.526548	-0.012835	0.094693	3.425842	0.000000	-0.006554	0.000000	0.000009	0.000001	0.000000	0.000000
6.604435	21.119149	13.471533	-0.028691	0.069736	3.423649	0.000000	-0.006554	0.000000	0.000009	0.000001	0.000000	0.000000
6.901758	21.140399	13.436659	-0.098012	0.082663	3.421700	0.000000	0.002386	0.000000	0.000009	0.000001	0.000000	0.000000
7.450818	20.887756	13.606799	0.555426	-0.394368	3.394808	0.000000	-0.100195	0.000000	0.000010	0.000001	0.000000	0.000000
7.999878	19.934956	14.313036	1.169631	-0.899489	3.311999	0.000000	-0.200999	0.000000	0.000010	0.000001	0.000000	0.000000
8.548938	18.349300	15.605672	1.701220	-1.468678	3.174741	0.000000	-0.298238	0.000000	0.000010	0.000000	0.000000	0.000000
9.097998	16.242791	17.576779	2.112642	-2.142479	2.985470	0.000000	-0.390187	0.000000	0.000010	-0.000000	0.000000	0.000000
9.543958	14.599366	19.333113	1.585600	-1.779197	2.829769	0.000000	-0.308480	0.000000	0.000010	0.000000	0.000000	0.000000
9.984918	13.404099	20.712126	1.135284	-1.336198	2.710987	0.000000	-0.230771	0.000000	0.000011	0.000000	0.000000	0.000000
10.425878	12.581689	21.672045	0.736837	-0.832404	2.625861	0.000000	-0.155690	0.000000	0.000011	0.000001	0.000000	0.000000
10.866838	12.094561	22.169197	0.372053	-0.290735	2.573420	0.000000	-0.082383	0.000000	0.000011	0.000001	0.000000	0.000000
11.309048	11.920327	22.180435	0.053391	0.209714	2.553047	0.000000	-0.016274	0.000000	0.000012	0.000001	0.000000	0.000000
11.606371	11.896015	22.059891	0.028378	0.195719	2.548208	0.000000	-0.016274	0.000000	0.000012	0.000001	0.000000	0.000000
12.086371	11.888156	21.882844	-0.012004	0.173127	2.540396	0.000000	-0.016274	0.000000	0.000013	0.000001	0.000000	0.000000
12.566371	11.919063	21.727487	-0.052386	0.150534	2.532584	0.000000	-0.016274	0.000000	0.000013	0.000001	0.000000	0.000000
13.046371	11.988738	21.593818	-0.092769	0.127942	2.524772	0.000000	-0.016274	0.000000	0.000014	0.000001	0.000000	0.000000
13.526371	12.097179	21.481838	-0.133151	0.105350	2.516960	0.000000	-0.016274	0.000000	0.000014	0.000001	0.000000	0.000000
14.007621	12.244821	21.391340	-0.173638	0.082698	2.509128	0.000000	-0.016274	0.000000	0.000015	0.000001	0.000000	0.000000
14.304943	12.355511	21.346325	-0.168357	0.016365	2.504289	0.000000	-0.022414	0.000000	0.000015	0.000001	0.000000	0.000000
14.745903	12.662484	21.098269	-0.530430	0.544031	2.510036	0.000000	0.048509	0.000000	0.000016	0.000002	0.000000	0.000000
15.186863	13.298216	20.394032	-0.916738	1.046945	2.547149	0.000000	0.119985	0.000000	0.000017	0.000002	0.000000	0.000000
15.627823	14.291751	19.265657	-1.344928	1.502223	2.616052	0.000000	0.192827	0.000000	0.000018	0.000002	0.000000	0.000000
16.068783	15.688483	17.764483	-1.834565	1.889152	2.717528	0.000000	0.267866	0.000000	0.000019	0.000003	0.000000	0.000000
16.514743	17.575882	15.937313	-2.412776	2.190868	2.854428	0.000000	0.346418	0.000000	0.000020	0.000003	0.000000	0.000000
17.063803	20.000055	13.897156	-1.976219	1.546790	3.020900	0.000000	0.259084	0.000000	0.000022	0.000003	0.000000	0.000000
17.612863	21.864882	12.499987	-1.400072	1.012886	3.138087	0.000000	0.167155	0.000000	0.000023	0.000002	0.000000	0.000000
18.161923	23.038641	11.646289	-0.725031	0.551128	3.203910	0.000000	0.072262	0.000000	0.000024	0.000001	0.000000	0.000000
18.710983	23.438422	11.275254	0.001222	0.128625	3.217202	0.000000	-0.023914	0.000000	0.000025	0.000000	0.000000	0.000000
19.009556	23.478071	11.188961	-0.072790	0.130937	3.212571	0.000000	-0.015510	0.000000	0.000025	0.000001	0.000000	0.000000
19.342889	23.531355	11.111770	-0.087062	0.100635	3.207401	0.000000	-0.015510	0.000000	0.000025	0.000001	0.000000	0.000000
19.676223	23.594155	11.054781	-0.101335	0.070333	3.202231	0.000000	-0.015510	0.000000	0.000025	0.000001	0.000000	0.000000
20.010806	23.667051	11.017757	-0.232921	0.094506	3.197062	0.000000	0.000331	0.000000	0.000025	0.000001	0.000000	0.000000
20.308129	23.809495	10.969654	-0.308362	0.095935	3.197160	0.000000	0.008682	0.000000	0.000026	0.000001	0.000000	0.000000
20.857189	23.737452	11.086294	0.438797	-0.309624	3.175707	0.000000	-0.086712	0.000000	0.000026	-0.000000	0.000000	0.000000
21.406249	22.857172	11.657710	1.154961	-0.737237	3.102223	0.000000	-0.180567	0.000000	0.000025	-0.000001	0.000000	0.000000
21.955309	21.230833	12.724605	1.789545	-1.217362	2.978011	0.000000	-0.271221	0.000000	0.000025	-0.000002	0.000000	0.000000
22.504369	18.973313	14.362970	2.297724	-1.784196	2.805275	0.000000	-0.357063	0.000000	0.000024	-0.000003	0.000000	0.000000
22.950329	17.194110	15.833994	1.705958	-1.500444	2.663334	0.000000	-0.279852	0.000000	0.000023	-0.000002	0.000000	0.000000
23.391289	15.918934	17.006878	1.196829	-1.149275	2.556254	0.000000	-0.206282	0.000000	0.000022	-0.000001	0.000000	0.000000
23.832249	15.067051	17.845729	0.742381	-0.745815	2.481066	0.000000	-0.135062	0.000000	0.000021	-0.000001	0.000000	0.000000
24.273209	14.599542	18.312381	0.321849	-0.308421	2.436915	0.000000	-0.065381	0.000000	0.000021	-0.000000	0.000000	0.000000
24.715418	14.495167	18.385356	-0.048525	0.097859	2.423294	0.000000	-0.002385	0.000000	0.000021	0.000000	0.000000	0.000000
25.012741	14.530136	18.332019	-0.069085	0.081532	2.422584	0.000000	-0.002385	0.000000	0.000021	0.000000	0.000000	0.000000
25.346075	14.583876	18.283765	-0.092136	0.063228	2.421789	0.000000	-0.002385	0.000000	0.000021	0.000000	0.000000	0.000000
25.679408	14.652983	18.247714	-0.115186	0.044924	2.420994	0.000000	-0.002385	0.000000	0.000021	0.000000	0.000000	0.000000
26.013991	14.737504	18.224169	-0.018763	-0.121292	2.420171	0.000000	-0.022019	0.000000	0.000021	0.000000	0.000000	0.000000
26.311314	14.754662	18.301217	-0.002769	-0.182717	2.413624	0.000000	-0.027937	0.000000	0.000021	-0.000000	0.000000	0.000000
26.752274	14.938876	18.263899	-0.416572	0.267023	2.416416	0.000000	0.040611	0.000000	0.000022	0.000001	0.000000	0.000000
27.193234	15.495013	17.833809	-0.849408	0.704614	2.449507	0.000000	0.109621	0.000000	0.000022	0.000001	0.000000	0.000000
27.634194	16.448482	17.030515	-1.321050	1.110146	2.513275	0.000000	0.179880	0.000000	0.000023	0.000002	0.000000	0.000000
28.075154	17.842843	15.890567	-1.853048	1.465167	2.608446	0.000000	0.252188	0.000000	0.000023	0.000002	0.000000	0.000000
28.521114	19.766024	14.448657	-2.474677	1.754436	2.737708	0.000000	0.327812	0.000000	0.000025	0.000003	0.000000	0.000000
29.070174	22.210394	12.842151	-1.950884	1.188755	2.895030	0.000000	0.244408	0.000000	0.000026	0.000002	0.000000	0.000000
29.619234	24.000040	11.806968	-1.289290	0.707746	3.005299	0.000000	0.156670	0.000000	0.000027	0.000001	0.000000	0.000000
30.168294	25.008548	11.269375	-0.536627	0.277149	3.066560	0.000000	0.066152	0.000000	0.000027	0.000000	0.000000	0.000000
30.717354	25.164684	11.191080	0.253941	-0.133708	3.077727	0.000000	-0.025538	0.000000	0.000027	-0.000001	0.000000	0.000000
31.015927	25.055966	11.261519	0.175920	-0.131445	3.072502	0.000000	-0.017499	0.000000	0.000027	-0.000000	0.000000	0.000000
31.349260	24.943258	11.359186	0.162205	-0.161556	3.066669	0.000000	-0.017499	0.000000	0.000027	-0.000000	0.000000	0.000000
31.682593	24.839693	11.476927	0.148490	-0.191667	3.060837	0.000000	-0.017499	0.000000	0.000027	-0.000000	0.000000	0.000000
32.017177	24.744935	11.615296	0.134723	-0.221890	3.054982	0.000000	-0.017499	0.000000	0.000027	-0.000000	0.000000	0.000000
32.314499	24.668460	11.755228	0.058050	-0.218041	3.049780	0.000000	-0.009532	0.000000	0.000026	-0.000000	0.000000	0.000000
32.863559	24.182041	12.233844	0.822616	-0.658806	3.019663	0.000000	-0.100010	0.000000	0.000026	-0.000001	0.000000	0.000000
33.412619	22.883131	13.219247	1.529077	-1.146496	2.940284	0.000000	-0.188714	0.000000	0.000025	-0.000002	0.000000	0.000000
33.961679	20.863476	14.781625	2.127532	-1.715849	2.813049	0.000000	-0.274072	0.000000	0.000024	-0.000003	0.000000	0.000000
34.510739	18.265735	17.032262	2.575708	-2.407418	2.640216	0.000000	-0.354567	0.000000	0.000022	-0.000004	0.000000	0.000000
34.956699	16.245846	19.045398	1.969825	-2.087898	2.498437	0.000000	-0.281636	0.000000	0.000020	-0.000003	0.000000	0.000000
35.397659	14.739605	20.710637	1.458954	-1.674124	2.389630	0.000000	-0.212340	0.000000	0.000019	-0.000003	0.000000	0.000000
35.838619	13.652926	21.975849	1.014740	-1.184179	2.310817	0.000000	-0.145462	0.000000	0.000018	-0.000002	0.000000	0.000000
36.279579	12.936163	22.783469	0.616886	-0.640354	2.261102	0.000000	-0.080241	0.000000	0.000017	-0.000002	0.000000	0.000000
36.721789	12.555873	23.097060	0.277896	-0.124080	2.239892	0.000000	-0.021426	0.000000	0.000017	-0.000001	0.000000	0.000000
37.019112	12.398208	23.174730	0.252388	-0.137151	2.233522	0.000000	-0.021426	0.000000	0.000016	-0.000001	0.000000	0.000000
37.352445	12.239482	23.271048	0.223789	-0.151805	2.226380	0.000000	-0.021426	0.000000	0.000016	-0.000001	0.000000	0.000000
37.685779	12.099822	23.377136	0.195191	-0.166459	2.219238	0.000000	-0.021426	0.000000	0.000016	-0.000001	0.000000	0.000000
38.020362	11.978811	23.493446	0.166486	-0.181168	2.212070	0.000000	-0.021426	0.000000	0.000015	-0.000001	0.000000	0.000000
38.317684	11.887395	23.605063	0.170124	-0.252118	2.205700	0.000000	-0.026834	0.000000	0.000015	-0.000001	0.000000	0.000000
38.758644	11.888889	23.565946	-0.173524	0.340489	2.207795	0.000000	0.036344	0.000000	0.000014	-0.000001	0.000000	0.000000
39.199604	12.195790	23.009058	-0.525101	0.917604	2.237814	0.000000	0.099937	0.000000	0.000014	-0.000000	0.000000	0.000000
39.640564	12.822122	21.959736	-0.900668	1.452969	2.296099	0.000000	0.164668	0.000000	0.000014	-0.000000	0.000000	0.000000
40.081524	13.796498	20.465726	-1.317384	1.922224	2.383313	0.000000	0.231275	0.000000	0.000014	0.000000	0.000000	0.000000
40.527484	15.181013	18.572426	-1.798116	2.305306	2.501922	0.000000	0.300920	0.000000	0.000014	0.000001	0.000000	0.000000
41.076544	16.947731	16.444782	-1.400550	1.592632	2.646615	0.000000	0.225361	0.000000	0.000014	0.000000	0.000000	0.000000
41.625604	18.220633	15.033228	-0.904056	0.993398	2.748662	0.000000	0.145805	0.000000	0.000014	-0.000000	0.000000	0.000000
42.174664	18.909808	14.237221	-0.343704	0.464922	2.806252	0.000000	0.063662	0.000000	0.000014	-0.000001	0.000000	0.000000
42.723724	18.966575	14.000064	0.240926	-0.030440	2.818364	0.000000	-0.019609	0.000000	0.000014	-0.000001	0.000000	0.000000
43.022297	18.857168	14.002768	0.175057	-0.015191	2.814708	0.000000	-0.012246	0.000000	0.000013	-0.000001	0.000000	0.000000
43.502297	18.701706	14.033809	0.148822	-0.049478	2.808830	0.000000	-0.012246	0.000000	0.000013	-0.000001	0.000000	0.000000
43.982297	18.571430	14.097766	0.122588	-0.083765	2.802953	0.000000	-0.012246	0.000000	0.000012	-0.000001	0.000000	0.000000
44.462297	18.466338	14.194638	0.096353	-0.118052	2.797075	0.000000	-0.012246	0.000000	0.000011	-0.000001	0.000000	0.000000
44.942297	18.386432	14.324425	0.070118	-0.152339	2.791197	0.000000	-0.012246	0.000000	0.000011	-0.000001	0.000000	0.000000
45.423547	18.331828	14.487415	-0.047010	-0.114935	2.785322	0.000000	0.001554	0.000000	0.000010	-0.000001	0.000000	0.000000
45.720870	18.364616	14.561943	-0.111245	-0.097685	2.785784	0.000000	0.008832	0.000000	0.000010	-0.000001	0.000000	0.000000
46.269930	18.177557	14.950809	0.449917	-0.614735	2.768062	0.000000	-0.073293	0.000000	0.000009	-0.000001	0.000000	0.000000
46.818990	17.388159	15.928027	0.979298	-1.175572	2.705539	0.000000	-0.154119	0.000000	0.000008	-0.000002	0.000000	0.000000
47.368050	16.052181	17.563202	1.439506	-1.820142	2.599325	0.000000	-0.232210	0.000000	0.000007	-0.000002	0.000000	0.000000
47.917110	14.263990	19.972804	1.798035	-2.594357	2.451303	0.000000	-0.306183	0.000000	0.000006	-0.000002	0.000000	0.000000
48.363070	12.872493	22.115090	1.333249	-2.189209	2.330051	0.000000	-0.237885	0.000000	0.000005	-0.000002	0.000000	0.000000
48.804030	11.876881	23.830310	0.933144	-1.685729	2.239613	0.000000	-0.172693	0.000000	0.000004	-0.000002	0.000000	0.000000
49.244990	11.214067	25.065853	0.575673	-1.105550	2.177463	0.000000	-0.109468	0.000000	0.000004	-0.000002	0.000000	0.000000
49.685950	10.853769	25.765505	0.244502	-0.475069	2.142890	0.000000	-0.047490	0.000000	0.000003	-0.000002	0.000000	0.000000
50.128160	10.779649	25.897148	-0.049180	0.113473	2.135513	0.000000	0.008711	0.000000	0.000002	-0.000002	0.000000	0.000000
50.425482	10.817114	25.833129	-0.076828	0.101844	2.138104	0.000000	0.008711	0.000000	0.000002	-0.000002	0.000000	0.000000
50.758816	10.878665	25.769579	-0.107826	0.088807	2.141008	0.000000	0.008711	0.000000	0.000001	-0.000002	0.000000	0.000000
51.092149	10.960881	25.714720	-0.138823	0.075769	2.143912	0.000000	0.008711	0.000000	0.000000	-0.000002	0.000000	0.000000
51.426732	11.063963	25.668917	-0.080178	-0.145555	2.146805	0.000000	-0.008705	0.000000	-0.000000	-0.000002	0.000000	0.000000
51.724055	11.119681	25.758988	-0.079955	-0.220553	2.144218	0.000000	-0.013964	0.000000	-0.000001	-0.000002	0.000000	0.000000
52.165015	11.335403	25.666902	-0.411110	0.428588	2.151649	0.000000	0.047699	0.000000	-0.000001	-0.000002	0.000000	0.000000
52.605975	11.850323	25.008772	-0.761047	1.058228	2.186365	0.000000	0.109905	0.000000	-0.000002	-0.000002	0.000000	0.000000
53.046935	12.687968	23.814540	-1.145754	1.639721	2.248762	0.000000	0.173362	0.000000	-0.000003	-0.000002	0.000000	0.000000
53.487895	13.886608	22.138543	-1.582808	2.146607	2.339548	0.000000	0.238795	0.000000	-0.000004	-0.000002	0.000000	0.000000
53.933855	15.521553	20.031981	-2.096401	2.557162	2.461264	0.000000	0.307345	0.000000	-0.000005	-0.000002	0.000000	0.000000
54.482915	17.626537	17.661514	-1.714701	1.785642	2.609836	0.000000	0.233041	0.000000	-0.000006	-0.000002	0.000000	0.000000
55.031975	19.242975	16.063874	-1.211884	1.141308	2.716414	0.000000	0.154603	0.000000	-0.000007	-0.000002	0.000000	0.000000
55.581035	20.256692	15.125264	-0.623465	0.578267	2.779106	0.000000	0.073422	0.000000	-0.000007	-0.000001	0.000000	0.000000
56.130095	20.596082	14.778830	0.008992	0.056416	2.796802	0.000000	-0.009060	0.000000	-0.000008	-0.000001	0.000000	0.000000
56.428668	20.627186	14.728168	-0.059351	0.074648	2.796280	0.000000	-0.001752	0.000000	-0.000009	-0.000001	0.000000	0.000000
56.762001	20.672159	14.685989	-0.075568	0.051889	2.795696	0.000000	-0.001752	0.000000	-0.000009	-0.000001	0.000000	0.000000
57.095334	20.727943	14.658982	-0.091784	0.029131	2.795112	0.000000	-0.001752	0.000000	-0.000009	-0.000001	0.000000	0.000000
57.429918	20.794808	14.647132	-0.108062	0.006287	2.794526	0.000000	-0.001752	0.000000	-0.000010	-0.000001	0.000000	0.000000
57.727240	20.863368	14.649429	-0.177044	0.024266	2.794006	0.000000	0.005549	0.000000	-0.000010	-0.000001	0.000000	0.000000
58.276300	20.701880	14.904040	0.469419	-0.490726	2.774413	0.000000	-0.076813	0.000000	-0.000011	-0.000001	0.000000	0.000000
58.825360	19.844586	15.739935	1.082723	-1.040671	2.709908	0.000000	-0.157811	0.000000	-0.000011	-0.000001	0.000000	0.000000
59.374420	18.352040	17.216650	1.619550	-1.664740	2.601632	0.000000	-0.236011	0.000000	-0.000011	-0.000000	0.000000	0.000000
59.923480	16.329669	19.439371	2.041980	-2.407386	2.451508	0.000000	-0.310025	0.000000	-0.000011	0.000000	0.000000	0.000000
60.369440	14.746816	21.414909	1.519906	-2.003769	2.328539	0.000000	-0.241743	0.000000	-0.000011	-0.000000	0.000000	0.000000
60.810400	13.608440	22.970418	1.071472	-1.510360	2.236388	0.000000	-0.176613	0.000000	-0.000011	-0.000000	0.000000	0.000000
61.251360	12.842548	24.058699	0.671991	-0.948230	2.172486	0.000000	-0.113494	0.000000	-0.000011	-0.000001	0.000000	0.000000
61.692320	12.414148	24.630235	0.303211	-0.342956	2.136107	0.000000	-0.051667	0.000000	-0.000012	-0.000001	0.000000	0.000000
62.134530	12.303721	24.658479	-0.021641	0.217391	2.126840	0.000000	0.004355	0.000000	-0.000012	-0.000001	0.000000	0.000000
62.431853	12.323778	24.532963	-0.045818	0.204763	2.128135	0.000000	0.004355	0.000000	-0.000013	-0.000001	0.000000	0.000000
62.765186	12.363359	24.401173	-0.072923	0.190606	2.129588	0.000000	0.004355	0.000000	-0.000013	-0.000001	0.000000	0.000000
63.098520	12.421009	24.278821	-0.100028	0.176449	2.131040	0.000000	0.004355	0.000000	-0.000014	-0.000001	0.000000	0.000000
63.433103	12.497047	24.165501	-0.127234	0.162239	2.132497	0.000000	0.004355	0.000000	-0.000014	-0.000001	0.000000	0.000000
63.730426	12.579894	24.072781	-0.120557	0.090570	2.133792	0.000000	-0.000878	0.000000	-0.000014	-0.000001	0.000000	0.000000
64.171386	12.846449	23.727802	-0.486225	0.688789	2.146945	0.000000	0.060589	0.000000	-0.000015	-0.000002	0.000000	0.000000
64.612346	13.444033	22.867099	-0.874107	1.255669	2.187330	0.000000	0.122747	0.000000	-0.000016	-0.000002	0.000000	0.000000
65.053306	14.399949	21.529832	-1.301925	1.765417	2.255405	0.000000	0.186302	0.000000	-0.000017	-0.000002	0.000000	0.000000
65.494266	15.757869	19.776847	-1.789223	2.194840	2.351947	0.000000	0.251980	0.000000	-0.000018	-0.000003	0.000000	0.000000
65.940226	17.602994	17.663102	-2.362957	2.525151	2.479627	0.000000	0.320929	0.000000	-0.000019	-0.000003	0.000000	0.000000
66.489286	19.968396	15.298534	-1.919637	1.806846	2.635473	0.000000	0.245912	0.000000	-0.000021	-0.000003	0.000000	0.000000
67.038346	21.769187	13.647874	-1.340723	1.217239	2.748869	0.000000	0.166533	0.000000	-0.000022	-0.000002	0.000000	0.000000
67.587406	22.878170	12.593549	-0.667107	0.714333	2.817805	0.000000	0.084200	0.000000	-0.000023	-0.000001	0.000000	0.000000
68.136466	23.217010	12.060461	0.053630	0.262308	2.841058	0.000000	0.000373	0.000000	-0.000024	-0.000000	0.000000	0.000000
68.435038	23.225056	11.893034	-0.019904	0.266932	2.843386	0.000000	0.007798	0.000000	-0.000024	-0.000001	0.000000	0.000000
68.768372	23.243112	11.725087	-0.034262	0.236908	2.845986	0.000000	0.007798	0.000000	-0.000024	-0.000001	0.000000	0.000000
69.101705	23.270740	11.577157	-0.048620	0.206883	2.848586	0.000000	0.007798	0.000000	-0.000024	-0.000001	0.000000	0.000000
69.436288	23.308097	11.448801	-0.063032	0.176746	2.851195	0.000000	0.007798	0.000000	-0.000024	-0.000001	0.000000	0.000000
69.733611	23.349386	11.351663	-0.136859	0.179630	2.853514	0.000000	0.015255	0.000000	-0.000024	-0.000001	0.000000	0.000000
70.282671	23.098654	11.381787	0.590814	-0.234819	2.838707	0.000000	-0.069112	0.000000	-0.000025	0.000000	0.000000	0.000000
