#ParticleID	Turn	x[m]	xp	y[m]	yp	z[m]	dE[GeV]# s	beta_x	beta_y	alpha_x	alpha_y	D_x	D_y	D_px	D_py	orbit_x	orbit_px	orbit_y	orbit_py
0.300000	11.818246	25.000683	-0.011520	-0.027460	2.618050	0.000000	0.000036	0.000000	-0.000000	0.000001	0.000000	0.000000
0.601250	11.832867	25.020860	-0.037014	-0.039518	2.618061	0.000000	0.000036	0.000000	-0.000000	0.000001	0.000000	0.000000
0.898573	11.862358	25.047898	-0.033085	-0.112844	2.618071	0.000000	-0.006384	0.000000	0.000000	0.000001	0.000000	0.000000
1.339533	12.043719	24.869579	-0.379763	0.515695	2.631549	0.000000	0.067572	0.000000	0.000001	0.000001	0.000000	0.000000
1.780493	12.537289	24.145207	-0.743791	1.120770	2.677777	0.000000	0.142298	0.000000	0.000001	0.000001	0.000000	0.000000
2.221453	13.365618	22.907740	-1.141801	1.674852	2.757281	0.000000	0.218645	0.000000	0.000001	0.000001	0.000000	0.000000
2.662413	14.566548	21.213483	-1.591977	2.152729	2.870968	0.000000	0.297482	0.000000	0.000002	0.000001	0.000000	0.000000
3.108373	16.215709	19.114675	-2.119177	2.533790	3.021994	0.000000	0.380196	0.000000	0.000002	0.000001	0.000000	0.000000
3.657433	18.330467	16.757431	-1.709620	1.784787	3.205472	0.000000	0.287158	0.000000	0.000003	0.000001	0.000000	0.000000
4.206493	19.926104	15.148466	-1.179303	1.162910	3.336391	0.000000	0.189026	0.000000	0.000003	0.000001	0.000000	0.000000
4.755553	20.889914	14.173176	-0.565686	0.623864	3.412429	0.000000	0.087542	0.000000	0.000004	0.000001	0.000000	0.000000
5.304613	21.153817	13.762095	0.087887	0.129255	3.432237	0.000000	-0.015495	0.000000	0.000004	0.000001	0.000000	0.000000
5.603185	21.138557	13.670094	0.018489	0.142924	3.430287	0.000000	-0.006528	0.000000	0.000004	0.000001	0.000000	0.000000
5.936519	21.131489	13.583105	0.002715	0.118042	3.428111	0.000000	-0.006528	0.000000	0.000005	0.000001	0.000000	0.000000
6.269852	21.134938	13.512705	-0.013060	0.093160	3.425935	0.000000	-0.006528	0.000000	0.000005	0.000001	0.000000	0.000000
6.604435	21.148975	13.458722	-0.028893	0.068184	3.423751	0.000000	-0.006528	0.000000	0.000005	0.000001	0.000000	0.000000
6.901758	21.170339	13.424775	-0.098275	0.081065	3.421809	0.000000	0.002412	0.000000	0.000005	0.000001	0.000000	0.000000
7.450818	20.917433	13.596494	0.556165	-0.395661	3.394931	0.000000	-0.100173	0.000000	0.000006	0.000000	0.000000	0.000000
7.999878	19.963293	14.304026	1.171319	-0.900569	3.312134	0.000000	-0.200981	0.000000	0.000006	0.000000	0.000000	0.000000
8.548938	18.375314	15.597767	1.703738	-1.469623	3.174885	0.000000	-0.298224	0.000000	0.000006	0.000000	0.000000	0.000000
9.097998	16.265662	17.569868	2.115814	-2.143355	2.985619	0.000000	-0.390177	0.000000	0.000006	-0.000000	0.000000	0.000000
9.543958	14.619722	19.327125	1.588089	-1.780381	2.829924	0.000000	-0.308467	0.000000	0.000006	0.000000	0.000000	0.000000
9.984918	13.422516	20.707297	1.137209	-1.337635	2.711149	0.000000	-0.230754	0.000000	0.000006	0.000000	0.000000	0.000000
10.425878	12.598623	21.668571	0.738286	-0.834026	2.626031	0.000000	-0.155669	0.000000	0.000006	0.000000	0.000000	0.000000
10.866838	12.110401	22.167208	0.373093	-0.292470	2.573601	0.000000	-0.082357	0.000000	0.000006	0.000001	0.000000	0.000000
11.309048	11.935410	22.180002	0.054109	0.207944	2.553241	0.000000	-0.016244	0.000000	0.000007	0.000001	0.000000	0.000000
11.606371	11.910663	22.060507	0.029125	0.193959	2.548411	0.000000	-0.016244	0.000000	0.000007	0.000001	0.000000	0.000000
12.086371	11.902064	21.885143	-0.011210	0.171382	2.540614	0.000000	-0.016244	0.000000	0.000007	0.000001	0.000000	0.000000
12.566371	11.932185	21.731453	-0.051544	0.148805	2.532816	0.000000	-0.016244	0.000000	0.000008	0.000001	0.000000	0.000000
13.046371	12.001028	21.599437	-0.091878	0.126228	2.525019	0.000000	-0.016244	0.000000	0.000008	0.000001	0.000000	0.000000
13.526371	12.108591	21.489095	-0.132212	0.103652	2.517222	0.000000	-0.016244	0.000000	0.000008	0.000001	0.000000	0.000000
14.007621	12.255307	21.400224	-0.172651	0.081016	2.509404	0.000000	-0.016244	0.000000	0.000009	0.000001	0.000000	0.000000
14.304943	12.365401	21.356206	-0.167314	0.014664	2.504574	0.000000	-0.022385	0.000000	0.000009	0.000001	0.000000	0.000000
14.745903	12.671542	21.109521	-0.529579	0.542634	2.510336	0.000000	0.048546	0.000000	0.000009	0.000001	0.000000	0.000000
15.186863	13.306593	20.406359	-0.916039	1.045914	2.547468	0.000000	0.120030	0.000000	0.000010	0.000001	0.000000	0.000000
15.627823	14.299567	19.278714	-1.344350	1.501606	2.616392	0.000000	0.192880	0.000000	0.000010	0.000001	0.000000	0.000000
16.068783	15.695831	17.777891	-1.834080	1.888976	2.717894	0.000000	0.267928	0.000000	0.000011	0.000002	0.000000	0.000000
16.514743	17.582830	15.950674	-2.412362	2.191146	2.854825	0.000000	0.346490	0.000000	0.000012	0.000002	0.000000	0.000000
17.063803	20.006351	13.910378	-1.975453	1.546768	3.021333	0.000000	0.259143	0.000000	0.000013	0.000002	0.000000	0.000000
17.612863	21.870167	12.513397	-1.399008	1.012564	3.138549	0.000000	0.167200	0.000000	0.000013	0.000001	0.000000	0.000000
18.161923	23.042627	11.660227	-0.723744	0.550482	3.204392	0.000000	0.072290	0.000000	0.000014	0.000001	0.000000	0.000000
18.710983	23.440913	11.290098	0.002641	0.127610	3.217696	0.000000	-0.023901	0.000000	0.000014	0.000000	0.000000	0.000000
19.009556	23.479721	11.204373	-0.071379	0.130008	3.213070	0.000000	-0.015495	0.000000	0.000014	0.000000	0.000000	0.000000
19.342889	23.532064	11.127786	-0.085648	0.099754	3.207905	0.000000	-0.015495	0.000000	0.000014	0.000000	0.000000	0.000000
19.676223	23.593919	11.071368	-0.099917	0.069501	3.202740	0.000000	-0.015495	0.000000	0.000014	0.000000	0.000000	0.000000
20.010806	23.665866	11.034883	-0.231494	0.093808	3.197575	0.000000	0.000348	0.000000	0.000015	0.000000	0.000000	0.000000
20.308129	23.807458	10.987182	-0.306927	0.095331	3.197679	0.000000	0.008702	0.000000	0.000015	0.000000	0.000000	0.000000
20.857189	23.733884	11.104757	0.440134	-0.310734	3.176232	0.000000	-0.086709	0.000000	0.000015	-0.000000	0.000000	0.000000
21.406249	22.852233	11.677704	1.156106	-0.738931	3.102745	0.000000	-0.180582	0.000000	0.000015	-0.000001	0.000000	0.000000
21.955309	21.224782	12.746833	1.790416	-1.219762	2.978520	0.000000	-0.271251	0.000000	0.000014	-0.000001	0.000000	0.000000
22.504369	18.966484	14.388296	2.298260	-1.787473	2.805763	0.000000	-0.357110	0.000000	0.000013	-0.000001	0.000000	0.000000
22.950329	17.186770	15.861987	1.706574	-1.503123	2.663803	0.000000	-0.279886	0.000000	0.000013	-0.000001	0.000000	0.000000
23.391289	15.911006	17.036925	1.197553	-1.151237	2.556710	0.000000	-0.206305	0.000000	0.000012	-0.000001	0.000000	0.000000
23.832249	15.058426	17.877157	0.743245	-0.746971	2.481515	0.000000	-0.135074	0.000000	0.000012	-0.000000	0.000000	0.000000
24.273209	14.590078	18.344452	0.322893	-0.308719	2.437361	0.000000	-0.065380	0.000000	0.000012	-0.000000	0.000000	0.000000
24.715418	14.484683	18.417303	-0.047276	0.098352	2.423743	0.000000	-0.002375	0.000000	0.000012	0.000000	0.000000	0.000000
25.012741	14.518913	18.363665	-0.067849	0.082052	2.423036	0.000000	-0.002375	0.000000	0.000012	0.000000	0.000000	0.000000
25.346075	14.571833	18.315055	-0.090913	0.063778	2.422245	0.000000	-0.002375	0.000000	0.000012	0.000000	0.000000	0.000000
25.679408	14.640130	18.278628	-0.113977	0.045504	2.421453	0.000000	-0.002375	0.000000	0.000012	0.000000	0.000000	0.000000
26.013991	14.723847	18.254686	-0.017678	-0.120930	2.420634	0.000000	-0.022013	0.000000	0.000012	0.000000	0.000000	0.000000
26.311314	14.740365	18.331509	-0.001735	-0.182404	2.414089	0.000000	-0.027932	0.000000	0.000012	-0.000000	0.000000	0.000000
26.752274	14.923509	18.293554	-0.415172	0.268151	2.416885	0.000000	0.040628	0.000000	0.000012	0.000000	0.000000	0.000000
27.193234	15.478227	17.862128	-0.847577	0.706506	2.449987	0.000000	0.109651	0.000000	0.000013	0.000001	0.000000	0.000000
27.634194	16.429861	17.056860	-1.318705	1.112715	2.513771	0.000000	0.179922	0.000000	0.000013	0.000001	0.000000	0.000000
28.075154	17.821889	15.914389	-1.850082	1.468296	2.608964	0.000000	0.252243	0.000000	0.000013	0.000001	0.000000	0.000000
28.521114	19.742093	14.469489	-2.470948	1.757984	2.738253	0.000000	0.327880	0.000000	0.000014	0.000002	0.000000	0.000000
29.070174	22.182689	12.859550	-1.947782	1.191497	2.895608	0.000000	0.244459	0.000000	0.000015	0.000001	0.000000	0.000000
29.619234	23.969374	11.821706	-1.287034	0.709878	3.005901	0.000000	0.156701	0.000000	0.000015	0.000001	0.000000	0.000000
30.168294	24.975946	11.282036	-0.535377	0.278822	3.067174	0.000000	0.066164	0.000000	0.000016	0.000000	0.000000	0.000000
30.717354	25.131305	11.202100	0.254097	-0.132375	3.078341	0.000000	-0.025547	0.000000	0.000016	-0.000000	0.000000	0.000000
31.015927	25.022450	11.271714	0.176140	-0.130046	3.073115	0.000000	-0.017504	0.000000	0.000015	-0.000000	0.000000	0.000000
31.349260	24.909602	11.368436	0.162405	-0.160119	3.067280	0.000000	-0.017504	0.000000	0.000015	-0.000000	0.000000	0.000000
31.682593	24.805910	11.485206	0.148671	-0.190191	3.061445	0.000000	-0.017504	0.000000	0.000015	-0.000000	0.000000	0.000000
32.017177	24.711037	11.622575	0.134884	-0.220377	3.055589	0.000000	-0.017504	0.000000	0.000015	-0.000000	0.000000	0.000000
32.314499	24.634471	11.761596	0.058276	-0.216474	3.050384	0.000000	-0.009535	0.000000	0.000015	-0.000000	0.000000	0.000000
32.863559	24.148425	12.238553	0.821717	-0.657332	3.020260	0.000000	-0.100033	0.000000	0.000015	-0.000001	0.000000	0.000000
33.412619	22.851094	13.222340	1.527116	-1.145010	2.940863	0.000000	-0.188756	0.000000	0.000014	-0.000001	0.000000	0.000000
33.961679	20.834117	14.783030	2.124647	-1.714245	2.813599	0.000000	-0.274132	0.000000	0.000014	-0.000002	0.000000	0.000000
34.510739	18.239962	17.031789	2.572103	-2.405582	2.640728	0.000000	-0.354645	0.000000	0.000013	-0.000002	0.000000	0.000000
34.956699	16.222930	19.043206	1.967002	-2.085892	2.498916	0.000000	-0.281700	0.000000	0.000012	-0.000002	0.000000	0.000000
35.397659	14.718884	20.706634	1.456779	-1.672042	2.390083	0.000000	-0.212392	0.000000	0.000011	-0.000001	0.000000	0.000000
35.838619	13.633877	21.970011	1.013113	-1.182115	2.311250	0.000000	-0.145503	0.000000	0.000010	-0.000001	0.000000	0.000000
36.279579	12.918335	22.775853	0.615732	-0.638403	2.261519	0.000000	-0.080271	0.000000	0.000010	-0.000001	0.000000	0.000000
36.721789	12.538877	23.087802	0.277123	-0.122311	2.240297	0.000000	-0.021447	0.000000	0.000010	-0.000001	0.000000	0.000000
37.019112	12.381678	23.164420	0.251590	-0.135382	2.233920	0.000000	-0.021447	0.000000	0.000009	-0.000001	0.000000	0.000000
37.352445	12.223493	23.259559	0.222965	-0.150035	2.226771	0.000000	-0.021447	0.000000	0.000009	-0.000001	0.000000	0.000000
37.685779	12.084392	23.364467	0.194339	-0.164689	2.219623	0.000000	-0.021447	0.000000	0.000009	-0.000001	0.000000	0.000000
38.020362	11.963960	23.479592	0.165606	-0.179398	2.212447	0.000000	-0.021447	0.000000	0.000009	-0.000001	0.000000	0.000000
38.317684	11.873075	23.590157	0.169187	-0.250314	2.206070	0.000000	-0.026857	0.000000	0.000009	-0.000001	0.000000	0.000000
38.758644	11.875253	23.549628	-0.174145	0.341873	2.208158	0.000000	0.036332	0.000000	0.000008	-0.000000	0.000000	0.000000
39.199604	12.182573	22.991728	-0.525434	0.918506	2.238173	0.000000	0.099934	0.000000	0.000008	-0.000000	0.000000	0.000000
39.640564	12.809077	21.941841	-0.900728	1.453346	2.296458	0.000000	0.164674	0.000000	0.000008	-0.000000	0.000000	0.000000
40.081524	13.783386	20.447736	-1.317174	1.922061	2.383677	0.000000	0.231290	0.000000	0.000008	0.000000	0.000000	0.000000
40.527484	15.167589	18.554823	-1.797624	2.304606	2.502295	0.000000	0.300945	0.000000	0.000008	0.000000	0.000000	0.000000
41.076544	16.934049	16.427690	-1.400575	1.592399	2.646998	0.000000	0.225374	0.000000	0.000008	0.000000	0.000000	0.000000
41.625604	18.207264	15.016145	-0.904596	0.993615	2.749048	0.000000	0.145805	0.000000	0.000008	-0.000000	0.000000	0.000000
42.174664	18.897299	14.219648	-0.344722	0.465604	2.806635	0.000000	0.063650	0.000000	0.000008	-0.000000	0.000000	0.000000
42.723724	18.955415	13.981466	0.239502	-0.029243	2.818737	0.000000	-0.019634	0.000000	0.000008	-0.000001	0.000000	0.000000
43.022297	18.846842	13.983492	0.173659	-0.014071	2.815073	0.000000	-0.012270	0.000000	0.000007	-0.000001	0.000000	0.000000
43.502297	18.692724	14.013480	0.147422	-0.048404	2.809184	0.000000	-0.012270	0.000000	0.000007	-0.000001	0.000000	0.000000
43.982297	18.563792	14.076427	0.121186	-0.082737	2.803295	0.000000	-0.012270	0.000000	0.000007	-0.000001	0.000000	0.000000
44.462297	18.460047	14.172334	0.094949	-0.117070	2.797406	0.000000	-0.012270	0.000000	0.000007	-0.000001	0.000000	0.000000
44.942297	18.381489	14.301200	0.068713	-0.151403	2.791517	0.000000	-0.012270	0.000000	0.000006	-0.000001	0.000000	0.000000
45.423547	18.328239	14.463312	-0.048400	-0.114165	2.785629	0.000000	0.001532	0.000000	0.000006	-0.000001	0.000000	0.000000
45.720870	18.361855	14.537391	-0.112634	-0.097008	2.786085	0.000000	0.008811	0.000000	0.000006	-0.000001	0.000000	0.000000
46.269930	18.176361	14.925101	0.448474	-0.613294	2.768349	0.000000	-0.073324	0.000000	0.000005	-0.000001	0.000000	0.000000
46.818990	17.388530	15.900271	0.977904	-1.173263	2.705806	0.000000	-0.154158	0.000000	0.000005	-0.000001	0.000000	0.000000
47.368050	16.054010	17.532362	1.438260	-1.816801	2.599568	0.000000	-0.232258	0.000000	0.000004	-0.000001	0.000000	0.000000
47.917110	14.267067	19.937622	1.797025	-2.589745	2.451517	0.000000	-0.306238	0.000000	0.000004	-0.000001	0.000000	0.000000
48.363070	12.876450	22.076130	1.332277	-2.185385	2.330241	0.000000	-0.237934	0.000000	0.000003	-0.000001	0.000000	0.000000
48.804030	11.881694	23.788388	0.932167	-1.682864	2.239783	0.000000	-0.172738	0.000000	0.000002	-0.000001	0.000000	0.000000
49.244990	11.219762	25.021878	0.574644	-1.103774	2.177612	0.000000	-0.109509	0.000000	0.000002	-0.000001	0.000000	0.000000
49.685950	10.860411	25.720475	0.243376	-0.474463	2.143022	0.000000	-0.047527	0.000000	0.000002	-0.000001	0.000000	0.000000
50.128160	10.787349	25.852112	-0.050436	0.112990	2.135630	0.000000	0.008676	0.000000	0.000001	-0.000001	0.000000	0.000000
50.425482	10.825557	25.788386	-0.078069	0.101343	2.138210	0.000000	0.008676	0.000000	0.000001	-0.000001	0.000000	0.000000
50.758816	10.887929	25.725177	-0.109048	0.088284	2.141102	0.000000	0.008676	0.000000	0.000001	-0.000001	0.000000	0.000000
51.092149	10.970954	25.670674	-0.140027	0.075226	2.143994	0.000000	0.008676	0.000000	0.000000	-0.000001	0.000000	0.000000
51.426732	11.074834	25.625241	-0.081276	-0.145766	2.146876	0.000000	-0.008740	0.000000	-0.000000	-0.000001	0.000000	0.000000
51.724055	11.131199	25.715443	-0.081003	-0.220678	2.144277	0.000000	-0.013999	0.000000	-0.000000	-0.000001	0.000000	0.000000
52.165015	11.347968	25.623976	-0.412446	0.427316	2.151694	0.000000	0.047665	0.000000	-0.000001	-0.000001	0.000000	0.000000
52.605975	11.864216	24.967453	-0.762733	1.055867	2.186395	0.000000	0.109872	0.000000	-0.000001	-0.000001	0.000000	0.000000
53.046935	12.703529	23.775746	-1.147866	1.636377	2.248776	0.000000	0.173330	0.000000	-0.000002	-0.000001	0.000000	0.000000
53.487895	13.904254	22.103076	-1.585443	2.142434	2.339548	0.000000	0.238762	0.000000	-0.000002	-0.000001	0.000000	0.000000
53.933855	15.541830	20.000539	-2.099685	2.552347	2.461249	0.000000	0.307313	0.000000	-0.000003	-0.000001	0.000000	0.000000
54.482915	17.650149	17.634668	-1.717456	1.782036	2.609803	0.000000	0.233009	0.000000	-0.000003	-0.000001	0.000000	0.000000
55.031975	19.269232	16.040444	-1.213915	1.138654	2.716363	0.000000	0.154572	0.000000	-0.000004	-0.000001	0.000000	0.000000
55.581035	20.284713	15.104315	-0.624628	0.576377	2.779040	0.000000	0.073394	0.000000	-0.000004	-0.000001	0.000000	0.000000
56.130095	20.624865	14.759602	0.008778	0.055153	2.796721	0.000000	-0.009086	0.000000	-0.000005	-0.000001	0.000000	0.000000
56.428668	20.656135	14.709731	-0.059619	0.073312	2.796190	0.000000	-0.001779	0.000000	-0.000005	-0.000001	0.000000	0.000000
56.762001	20.701279	14.668450	-0.075813	0.050530	2.795597	0.000000	-0.001779	0.000000	-0.000005	-0.000001	0.000000	0.000000
57.095334	20.757219	14.642358	-0.092008	0.027747	2.795004	0.000000	-0.001779	0.000000	-0.000005	-0.000001	0.000000	0.000000
57.429918	20.824226	14.631442	-0.108263	0.004879	2.794410	0.000000	-0.001779	0.000000	-0.000006	-0.000001	0.000000	0.000000
57.727240	20.892899	14.634582	-0.177300	0.022797	2.793881	0.000000	0.005522	0.000000	-0.000006	-0.000001	0.000000	0.000000
58.276300	20.731149	14.890581	0.470151	-0.491798	2.774275	0.000000	-0.076835	0.000000	-0.000006	-0.000000	0.000000	0.000000
58.825360	19.872528	15.727472	1.084393	-1.041424	2.709757	0.000000	-0.157830	0.000000	-0.000006	-0.000000	0.000000	0.000000
59.374420	18.377686	17.204865	1.622039	-1.665227	2.601473	0.000000	-0.236024	0.000000	-0.000006	-0.000000	0.000000	0.000000
59.923480	16.352210	19.427992	2.045112	-2.407641	2.451343	0.000000	-0.310032	0.000000	-0.000006	0.000000	0.000000	0.000000
60.369440	14.766872	21.403940	1.522365	-2.004432	2.328370	0.000000	-0.241756	0.000000	-0.000006	-0.000000	0.000000	0.000000
60.810400	13.626580	22.960202	1.073377	-1.511396	2.236213	0.000000	-0.176629	0.000000	-0.000006	-0.000000	0.000000	0.000000
61.251360	12.859220	24.049544	0.673427	-0.949592	2.172303	0.000000	-0.113515	0.000000	-0.000007	-0.000000	0.000000	0.000000
61.692320	12.429735	24.622404	0.304245	-0.344583	2.135912	0.000000	-0.051693	0.000000	-0.000007	-0.000001	0.000000	0.000000
62.134530	12.318554	24.652177	-0.020928	0.215591	2.126633	0.000000	0.004325	0.000000	-0.000007	-0.000001	0.000000	0.000000
62.431853	12.338178	24.527729	-0.045074	0.202970	2.127919	0.000000	0.004325	0.000000	-0.000007	-0.000001	0.000000	0.000000
62.765186	12.377251	24.397132	-0.072146	0.188820	2.129361	0.000000	0.004325	0.000000	-0.000008	-0.000001	0.000000	0.000000
63.098520	12.434372	24.275969	-0.099217	0.174670	2.130803	0.000000	0.004325	0.000000	-0.000008	-0.000001	0.000000	0.000000
63.433103	12.509857	24.163837	-0.126390	0.160467	2.132250	0.000000	0.004325	0.000000	-0.000008	-0.000001	0.000000	0.000000
63.730426	12.592193	24.072169	-0.119654	0.088809	2.133536	0.000000	-0.000908	0.000000	-0.000008	-0.000001	0.000000	0.000000
64.171386	12.858068	23.728736	-0.485579	0.687058	2.146674	0.000000	0.060553	0.000000	-0.000009	-0.000001	0.000000	0.000000
64.612346	13.455185	22.869517	-0.873688	1.254046	2.187040	0.000000	0.122703	0.000000	-0.000009	-0.000001	0.000000	0.000000
65.053306	14.410825	21.533606	-1.301714	1.763976	2.255094	0.000000	0.186251	0.000000	-0.000010	-0.000001	0.000000	0.000000
65.494266	15.768647	19.781786	-1.789211	2.193647	2.351611	0.000000	0.251920	0.000000	-0.000010	-0.000002	0.000000	0.000000
65.940226	17.613850	17.668973	-2.363144	2.524263	2.479262	0.000000	0.320861	0.000000	-0.000011	-0.000002	0.000000	0.000000
66.489286	19.979209	15.305377	-1.919372	1.805953	2.635073	0.000000	0.245856	0.000000	-0.000012	-0.000002	0.000000	0.000000
67.038346	21.779469	13.655728	-1.340024	1.216277	2.748442	0.000000	0.166490	0.000000	-0.000013	-0.000001	0.000000	0.000000
67.587406	22.887469	12.602528	-0.666025	0.713234	2.817358	0.000000	0.084171	0.000000	-0.000013	-0.000001	0.000000	0.000000
68.136466	23.224945	12.070757	0.055020	0.260993	2.840598	0.000000	0.000359	0.000000	-0.000014	-0.000000	0.000000	0.000000
68.435038	23.232169	11.904088	-0.018526	0.265684	2.842922	0.000000	0.007782	0.000000	-0.000014	-0.000000	0.000000	0.000000
68.768372	23.249304	11.736958	-0.032879	0.235706	2.845516	0.000000	0.007782	0.000000	-0.000014	-0.000000	0.000000	0.000000
69.101705	23.276008	11.589814	-0.047232	0.205727	2.848110	0.000000	0.007782	0.000000	-0.000014	-0.000000	0.000000	0.000000
69.436288	23.312434	11.462216	-0.061638	0.175637	2.850714	0.000000	0.007782	0.000000	-0.000014	-0.000000	0.000000	0.000000
69.733611	23.352893	11.365724	-0.135465	0.178597	2.853028	0.000000	0.015238	0.000000	-0.000014	-0.000000	0.000000	0.000000
70.282671	23.100578	11.397203	0.592284	-0.236267	2.838216	0.000000	-0.069114	0.000000	-0.000014	0.000000	0.000000	0.000000
