#ParticleID	Turn	x[m]	xp	y[m]	yp	z[m]	dE[GeV]# s	beta_x	beta_y	alpha_x	alpha_y	D_x	D_y	D_px	D_py	orbit_x	orbit_px	orbit_y	orbit_py
0.300000	11.823514	24.979230	-0.012199	-0.027621	2.618111	0.000000	0.000013	0.000000	-0.000000	0.000001	0.000000	0.000000
0.601250	11.838541	24.999508	-0.037682	-0.039690	2.618115	0.000000	0.000013	0.000000	-0.000000	0.000001	0.000000	0.000000
0.898573	11.868426	25.026651	-0.033728	-0.112974	2.618118	0.000000	-0.006407	0.000000	0.000000	0.000001	0.000000	0.000000
1.339533	12.050420	24.848694	-0.380560	0.515006	2.631586	0.000000	0.067550	0.000000	0.000000	0.000001	0.000000	0.000000
1.780493	12.544775	24.125164	-0.744780	1.119555	2.677805	0.000000	0.142277	0.000000	0.000001	0.000001	0.000000	0.000000
2.221453	13.374076	22.888983	-1.143026	1.673164	2.757300	0.000000	0.218624	0.000000	0.000001	0.000001	0.000000	0.000000
2.662413	14.576212	21.196395	-1.593494	2.150646	2.870979	0.000000	0.297461	0.000000	0.000001	0.000001	0.000000	0.000000
3.108373	16.226883	19.099587	-2.121060	2.531406	3.021995	0.000000	0.380176	0.000000	0.000001	0.000001	0.000000	0.000000
3.657433	18.343564	16.744625	-1.711219	1.782991	3.205463	0.000000	0.287138	0.000000	0.000002	0.000001	0.000000	0.000000
4.206493	19.940750	15.137369	-1.180506	1.161574	3.336371	0.000000	0.189007	0.000000	0.000002	0.000001	0.000000	0.000000
4.755553	20.905623	14.163338	-0.566408	0.622894	3.412399	0.000000	0.087523	0.000000	0.000002	0.000000	0.000000	0.000000
5.304613	21.170029	13.753155	0.087698	0.128581	3.432197	0.000000	-0.015513	0.000000	0.000003	0.000000	0.000000	0.000000
5.603185	21.154905	13.661573	0.018267	0.142218	3.430242	0.000000	-0.006545	0.000000	0.000003	0.000000	0.000000	0.000000
5.936519	21.147981	13.575059	0.002505	0.117325	3.428060	0.000000	-0.006545	0.000000	0.000003	0.000000	0.000000	0.000000
6.269852	21.151565	13.505140	-0.013257	0.092432	3.425878	0.000000	-0.006545	0.000000	0.000003	0.000000	0.000000	0.000000
6.604435	21.165729	13.451648	-0.029078	0.067446	3.423688	0.000000	-0.006545	0.000000	0.000003	0.000000	0.000000	0.000000
6.901758	21.187200	13.418143	-0.098494	0.080300	3.421742	0.000000	0.002395	0.000000	0.000003	0.000000	0.000000	0.000000
7.450818	20.934224	13.590602	0.556512	-0.396252	3.394855	0.000000	-0.100188	0.000000	0.000003	0.000000	0.000000	0.000000
7.999878	19.979400	14.298707	1.172209	-0.901029	3.312050	0.000000	-0.200993	0.000000	0.000004	0.000000	0.000000	0.000000
8.548938	18.390174	15.592896	1.705106	-1.469984	3.174795	0.000000	-0.298234	0.000000	0.000004	0.000000	0.000000	0.000000
9.097998	16.278800	17.565351	2.117564	-2.143642	2.985525	0.000000	-0.390184	0.000000	0.000004	-0.000000	0.000000	0.000000
9.543958	14.631476	19.322944	1.589453	-1.780846	2.829826	0.000000	-0.308476	0.000000	0.000004	0.000000	0.000000	0.000000
9.984918	13.433211	20.703597	1.138254	-1.338254	2.711047	0.000000	-0.230766	0.000000	0.000004	0.000000	0.000000	0.000000
10.425878	12.608520	21.665475	0.739059	-0.834773	2.625923	0.000000	-0.155683	0.000000	0.000004	0.000000	0.000000	0.000000
10.866838	12.119724	22.164814	0.373629	-0.293310	2.573486	0.000000	-0.082374	0.000000	0.000004	0.000000	0.000000	0.000000
11.309048	11.944355	22.178377	0.054454	0.207053	2.553118	0.000000	-0.016264	0.000000	0.000004	0.000000	0.000000	0.000000
11.606371	11.919397	22.059411	0.029488	0.193072	2.548282	0.000000	-0.016264	0.000000	0.000004	0.000000	0.000000	0.000000
12.086371	11.910435	21.884896	-0.010818	0.170502	2.540475	0.000000	-0.016264	0.000000	0.000004	0.000000	0.000000	0.000000
12.566371	11.940167	21.732048	-0.051123	0.147931	2.532668	0.000000	-0.016264	0.000000	0.000005	0.000000	0.000000	0.000000
13.046371	12.008592	21.600868	-0.091429	0.125361	2.524861	0.000000	-0.016264	0.000000	0.000005	0.000000	0.000000	0.000000
13.526371	12.115710	21.491356	-0.131734	0.102790	2.517054	0.000000	-0.016264	0.000000	0.000005	0.000000	0.000000	0.000000
14.007621	12.261952	21.403310	-0.172145	0.080161	2.509226	0.000000	-0.016264	0.000000	0.000005	0.000000	0.000000	0.000000
14.304943	12.371740	21.359800	-0.166773	0.013802	2.504390	0.000000	-0.022405	0.000000	0.000005	0.000000	0.000000	0.000000
14.745903	12.677461	21.113827	-0.529165	0.541888	2.510143	0.000000	0.048521	0.000000	0.000006	0.000001	0.000000	0.000000
15.186863	13.312195	20.411259	-0.915733	1.045318	2.547262	0.000000	0.119999	0.000000	0.000006	0.000001	0.000000	0.000000
15.627823	14.304941	19.284063	-1.344138	1.501187	2.616172	0.000000	0.192845	0.000000	0.000006	0.000001	0.000000	0.000000
16.068783	15.701056	17.783525	-1.833952	1.888753	2.717658	0.000000	0.267887	0.000000	0.000007	0.000001	0.000000	0.000000
16.514743	17.587977	15.956415	-2.412313	2.191130	2.854569	0.000000	0.346442	0.000000	0.000007	0.000001	0.000000	0.000000
17.063803	20.011315	13.916197	-1.975173	1.546640	3.021054	0.000000	0.259104	0.000000	0.000008	0.000001	0.000000	0.000000
17.612863	21.874704	12.519422	-1.398516	1.012314	3.138250	0.000000	0.167170	0.000000	0.000008	0.000001	0.000000	0.000000
18.161923	23.046522	11.666601	-0.723075	0.550093	3.204081	0.000000	0.072271	0.000000	0.000008	0.000000	0.000000	0.000000
18.710983	23.443998	11.296989	0.003440	0.127053	3.217376	0.000000	-0.023910	0.000000	0.000009	0.000000	0.000000	0.000000
19.009556	23.482334	11.211580	-0.070589	0.129491	3.212747	0.000000	-0.015505	0.000000	0.000009	0.000000	0.000000	0.000000
19.342889	23.534148	11.135329	-0.084854	0.099261	3.207579	0.000000	-0.015505	0.000000	0.000009	0.000000	0.000000	0.000000
19.676223	23.595473	11.079231	-0.099120	0.069031	3.202410	0.000000	-0.015505	0.000000	0.000009	0.000000	0.000000	0.000000
20.010806	23.666885	11.043053	-0.230698	0.093402	3.197243	0.000000	0.000336	0.000000	0.000009	0.000000	0.000000	0.000000
20.308129	23.808003	10.995587	-0.306131	0.094971	3.197342	0.000000	0.008690	0.000000	0.000009	0.000000	0.000000	0.000000
20.857189	23.733549	11.113689	0.440931	-0.311338	3.175892	0.000000	-0.086710	0.000000	0.000009	-0.000000	0.000000	0.000000
21.406249	22.851049	11.687453	1.156847	-0.739824	3.102407	0.000000	-0.180572	0.000000	0.000009	-0.000000	0.000000	0.000000
21.955309	21.222838	12.757748	1.791050	-1.221005	2.978191	0.000000	-0.271231	0.000000	0.000009	-0.000001	0.000000	0.000000
22.504369	18.963925	14.400809	2.298741	-1.789156	2.805447	0.000000	-0.357079	0.000000	0.000008	-0.000001	0.000000	0.000000
22.950329	17.183781	15.875879	1.707061	-1.504517	2.663500	0.000000	-0.279863	0.000000	0.000008	-0.000001	0.000000	0.000000
23.391289	15.907576	17.051895	1.198068	-1.152280	2.556415	0.000000	-0.206290	0.000000	0.000008	-0.000000	0.000000	0.000000
23.832249	15.054521	17.892872	0.743812	-0.747614	2.481224	0.000000	-0.135066	0.000000	0.000007	-0.000000	0.000000	0.000000
24.273209	14.585640	18.360547	0.323538	-0.308933	2.437072	0.000000	-0.065380	0.000000	0.000007	-0.000000	0.000000	0.000000
24.715418	14.479630	18.433395	-0.046535	0.098534	2.423452	0.000000	-0.002382	0.000000	0.000007	0.000000	0.000000	0.000000
25.012741	14.513420	18.379644	-0.067113	0.082248	2.422744	0.000000	-0.002382	0.000000	0.000007	0.000000	0.000000	0.000000
25.346075	14.565852	18.330899	-0.090184	0.063989	2.421950	0.000000	-0.002382	0.000000	0.000007	0.000000	0.000000	0.000000
25.679408	14.633665	18.294326	-0.113254	0.045730	2.421156	0.000000	-0.002382	0.000000	0.000007	0.000000	0.000000	0.000000
26.013991	14.716901	18.270227	-0.017018	-0.120814	2.420334	0.000000	-0.022017	0.000000	0.000007	0.000000	0.000000	0.000000
26.311314	14.733029	18.346978	-0.001100	-0.182314	2.413788	0.000000	-0.027936	0.000000	0.000007	-0.000000	0.000000	0.000000
26.752274	14.915532	18.308758	-0.414347	0.268658	2.416581	0.000000	0.040616	0.000000	0.000007	0.000000	0.000000	0.000000
27.193234	15.469424	17.876708	-0.846524	0.707407	2.449676	0.000000	0.109631	0.000000	0.000008	0.000000	0.000000	0.000000
27.634194	16.420012	17.070486	-1.317376	1.113969	2.513450	0.000000	0.179894	0.000000	0.000008	0.000001	0.000000	0.000000
28.075154	17.810724	15.926775	-1.848416	1.469846	2.608628	0.000000	0.252207	0.000000	0.000008	0.000001	0.000000	0.000000
28.521114	19.729262	14.480385	-2.468865	1.759760	2.737900	0.000000	0.327835	0.000000	0.000008	0.000001	0.000000	0.000000
29.070174	22.167738	12.868733	-1.946027	1.192859	2.895234	0.000000	0.244425	0.000000	0.000009	0.000001	0.000000	0.000000
29.619234	23.952734	11.829576	-1.285731	0.710923	3.005511	0.000000	0.156680	0.000000	0.000009	0.000000	0.000000	0.000000
30.168294	24.958167	11.288897	-0.534618	0.279625	3.066776	0.000000	0.066156	0.000000	0.000009	0.000000	0.000000	0.000000
30.717354	25.113018	11.208185	0.254258	-0.131756	3.077943	0.000000	-0.025542	0.000000	0.000009	-0.000000	0.000000	0.000000
31.015927	25.004044	11.277414	0.176336	-0.129392	3.072717	0.000000	-0.017500	0.000000	0.000009	-0.000000	0.000000	0.000000
31.349260	24.891068	11.373693	0.162590	-0.159445	3.066884	0.000000	-0.017500	0.000000	0.000009	-0.000000	0.000000	0.000000
31.682593	24.787257	11.490007	0.148844	-0.189497	3.061051	0.000000	-0.017500	0.000000	0.000009	-0.000000	0.000000	0.000000
32.017177	24.692272	11.626905	0.135047	-0.219662	3.055195	0.000000	-0.017500	0.000000	0.000009	-0.000000	0.000000	0.000000
32.314499	24.615612	11.765496	0.058475	-0.215730	3.049992	0.000000	-0.009532	0.000000	0.000009	-0.000000	0.000000	0.000000
32.863559	24.129693	12.241678	0.821288	-0.656657	3.019873	0.000000	-0.100017	0.000000	0.000009	-0.000000	0.000000	0.000000
33.412619	22.833166	13.224739	1.526090	-1.144356	2.940488	0.000000	-0.188728	0.000000	0.000009	-0.000001	0.000000	0.000000
33.961679	20.817612	14.784702	2.123096	-1.713565	2.813243	0.000000	-0.274092	0.000000	0.000008	-0.000001	0.000000	0.000000
34.510739	18.225400	17.032678	2.570137	-2.404828	2.640396	0.000000	-0.354593	0.000000	0.000008	-0.000001	0.000000	0.000000
34.956699	16.209922	19.043371	1.965471	-2.085030	2.498605	0.000000	-0.281657	0.000000	0.000007	-0.000001	0.000000	0.000000
35.397659	14.707063	20.706005	1.455610	-1.671111	2.389789	0.000000	-0.212357	0.000000	0.000007	-0.000001	0.000000	0.000000
35.838619	13.622948	21.968547	1.012251	-1.181158	2.310969	0.000000	-0.145475	0.000000	0.000006	-0.000001	0.000000	0.000000
36.279579	12.908046	22.773550	0.615139	-0.637464	2.261249	0.000000	-0.080251	0.000000	0.000006	-0.000001	0.000000	0.000000
36.721789	12.529004	23.084691	0.276748	-0.121427	2.240034	0.000000	-0.021433	0.000000	0.000006	-0.000000	0.000000	0.000000
37.019112	12.372033	23.160783	0.251200	-0.134496	2.233662	0.000000	-0.021433	0.000000	0.000006	-0.000000	0.000000	0.000000
37.352445	12.214114	23.255331	0.222557	-0.149149	2.226518	0.000000	-0.021433	0.000000	0.000006	-0.000000	0.000000	0.000000
37.685779	12.075290	23.359648	0.193915	-0.163801	2.219374	0.000000	-0.021433	0.000000	0.000005	-0.000000	0.000000	0.000000
38.020362	11.955148	23.474179	0.165165	-0.178509	2.212203	0.000000	-0.021433	0.000000	0.000005	-0.000000	0.000000	0.000000
38.317684	11.864530	23.584214	0.168710	-0.249411	2.205830	0.000000	-0.026842	0.000000	0.000005	-0.000000	0.000000	0.000000
38.758644	11.867044	23.542962	-0.174432	0.342606	2.207923	0.000000	0.036340	0.000000	0.000005	-0.000000	0.000000	0.000000
39.199604	12.174539	22.984504	-0.525544	0.919035	2.237940	0.000000	0.099936	0.000000	0.000005	-0.000000	0.000000	0.000000
39.640564	12.801064	21.934248	-0.900667	1.453649	2.296225	0.000000	0.164670	0.000000	0.000005	-0.000000	0.000000	0.000000
40.081524	13.775244	20.439982	-1.316939	1.922122	2.383441	0.000000	0.231280	0.000000	0.000005	0.000000	0.000000	0.000000
40.527484	15.159155	18.547125	-1.797203	2.304421	2.502054	0.000000	0.300929	0.000000	0.000005	0.000000	0.000000	0.000000
41.076544	16.925324	16.420088	-1.400469	1.592406	2.646751	0.000000	0.225366	0.000000	0.000005	0.000000	0.000000	0.000000
41.625604	18.198598	15.008431	-0.904812	0.993814	2.748798	0.000000	0.145805	0.000000	0.000005	-0.000000	0.000000	0.000000
42.174664	18.889041	14.211603	-0.345244	0.466009	2.806387	0.000000	0.063658	0.000000	0.000005	-0.000000	0.000000	0.000000
42.723724	18.947884	13.972850	0.238710	-0.028602	2.818496	0.000000	-0.019618	0.000000	0.000005	-0.000000	0.000000	0.000000
43.022297	18.839774	13.974510	0.172883	-0.013465	2.814837	0.000000	-0.012254	0.000000	0.000005	-0.000000	0.000000	0.000000
43.502297	18.686402	14.003926	0.146643	-0.047819	2.808955	0.000000	-0.012254	0.000000	0.000004	-0.000000	0.000000	0.000000
43.982297	18.558219	14.066322	0.120404	-0.082174	2.803073	0.000000	-0.012254	0.000000	0.000004	-0.000000	0.000000	0.000000
44.462297	18.455227	14.161699	0.094164	-0.116528	2.797192	0.000000	-0.012254	0.000000	0.000004	-0.000000	0.000000	0.000000
44.942297	18.377424	14.290056	0.067925	-0.150883	2.791310	0.000000	-0.012254	0.000000	0.000004	-0.000000	0.000000	0.000000
45.423547	18.324934	14.451678	-0.049175	-0.113724	2.785430	0.000000	0.001547	0.000000	0.000004	-0.000000	0.000000	0.000000
45.720870	18.359012	14.525499	-0.113407	-0.096612	2.785890	0.000000	0.008825	0.000000	0.000003	-0.000000	0.000000	0.000000
46.269930	18.174411	14.912573	0.447628	-0.612524	2.768163	0.000000	-0.073303	0.000000	0.000003	-0.000000	0.000000	0.000000
46.818990	17.387522	15.886670	0.977045	-1.172065	2.705634	0.000000	-0.154132	0.000000	0.000003	-0.000001	0.000000	0.000000
47.368050	16.053926	17.517173	1.437448	-1.815090	2.599411	0.000000	-0.232226	0.000000	0.000003	-0.000001	0.000000	0.000000
47.917110	14.267822	19.920219	1.796317	-2.587399	2.451379	0.000000	-0.306201	0.000000	0.000002	-0.000001	0.000000	0.000000
48.363070	12.877812	22.056796	1.331620	-2.183422	2.330118	0.000000	-0.237901	0.000000	0.000002	-0.000001	0.000000	0.000000
48.804030	11.883625	23.767526	0.931530	-1.681373	2.239673	0.000000	-0.172708	0.000000	0.000002	-0.000001	0.000000	0.000000
49.244990	11.222256	24.999935	0.573998	-1.102822	2.177516	0.000000	-0.109481	0.000000	0.000001	-0.000001	0.000000	0.000000
49.685950	10.863490	25.697948	0.242691	-0.474094	2.142937	0.000000	-0.047502	0.000000	0.000001	-0.000001	0.000000	0.000000
50.128160	10.791062	25.829525	-0.051181	0.112814	2.135555	0.000000	0.008700	0.000000	0.000001	-0.000001	0.000000	0.000000
50.425482	10.829711	25.765907	-0.078806	0.101157	2.138142	0.000000	0.008700	0.000000	0.000001	-0.000001	0.000000	0.000000
50.758816	10.892572	25.702826	-0.109777	0.088087	2.141042	0.000000	0.008700	0.000000	0.000000	-0.000001	0.000000	0.000000
51.092149	10.976080	25.648457	-0.140748	0.075018	2.143942	0.000000	0.008700	0.000000	0.000000	-0.000001	0.000000	0.000000
51.426732	11.080440	25.603166	-0.081943	-0.145806	2.146831	0.000000	-0.008717	0.000000	-0.000000	-0.000001	0.000000	0.000000
51.724055	11.137198	25.693395	-0.081644	-0.220674	2.144239	0.000000	-0.013975	0.000000	-0.000000	-0.000001	0.000000	0.000000
52.165015	11.354598	25.602182	-0.413241	0.426738	2.151666	0.000000	0.047688	0.000000	-0.000000	-0.000001	0.000000	0.000000
52.605975	11.871628	24.946416	-0.763717	1.054734	2.186376	0.000000	0.109894	0.000000	-0.000001	-0.000001	0.000000	0.000000
53.046935	12.711909	23.755936	-1.149085	1.634740	2.248767	0.000000	0.173352	0.000000	-0.000001	-0.000001	0.000000	0.000000
53.487895	13.913832	22.084906	-1.586952	2.140367	2.339549	0.000000	0.238784	0.000000	-0.000001	-0.000001	0.000000	0.000000
53.933855	15.552910	19.984371	-2.101556	2.549944	2.461260	0.000000	0.307335	0.000000	-0.000002	-0.000001	0.000000	0.000000
54.482915	17.663142	17.620789	-1.719046	1.780246	2.609825	0.000000	0.233031	0.000000	-0.000002	-0.000001	0.000000	0.000000
55.031975	19.283764	16.028253	-1.215112	1.137351	2.716397	0.000000	0.154593	0.000000	-0.000002	-0.000001	0.000000	0.000000
55.581035	20.300304	15.093332	-0.625348	0.575467	2.779084	0.000000	0.073413	0.000000	-0.000003	-0.000000	0.000000	0.000000
56.130095	20.640960	14.749433	0.008587	0.054572	2.796775	0.000000	-0.009069	0.000000	-0.000003	-0.000000	0.000000	0.000000
56.428668	20.672365	14.699928	-0.059840	0.072692	2.796249	0.000000	-0.001761	0.000000	-0.000003	-0.000000	0.000000	0.000000
56.762001	20.717653	14.659065	-0.076023	0.049897	2.795662	0.000000	-0.001761	0.000000	-0.000003	-0.000000	0.000000	0.000000
57.095334	20.773729	14.633399	-0.092205	0.027101	2.795076	0.000000	-0.001761	0.000000	-0.000003	-0.000000	0.000000	0.000000
57.429918	20.840864	14.622920	-0.108448	0.004220	2.794487	0.000000	-0.001761	0.000000	-0.000003	-0.000000	0.000000	0.000000
57.727240	20.909643	14.626456	-0.177517	0.022104	2.793963	0.000000	0.005539	0.000000	-0.000003	-0.000000	0.000000	0.000000
58.276300	20.747822	14.883091	0.470497	-0.492271	2.774366	0.000000	-0.076820	0.000000	-0.000004	-0.000000	0.000000	0.000000
58.825360	19.888522	15.720396	1.085277	-1.041709	2.709856	0.000000	-0.157818	0.000000	-0.000004	-0.000000	0.000000	0.000000
59.374420	18.392440	17.198010	1.623398	-1.665347	2.601577	0.000000	-0.236016	0.000000	-0.000004	-0.000000	0.000000	0.000000
59.923480	16.365253	19.421180	2.046851	-2.407603	2.451451	0.000000	-0.310027	0.000000	-0.000004	0.000000	0.000000	0.000000
60.369440	14.778539	21.397196	1.523722	-2.004620	2.328481	0.000000	-0.241748	0.000000	-0.000004	-0.000000	0.000000	0.000000
60.810400	13.637195	22.953720	1.074415	-1.511801	2.236327	0.000000	-0.176618	0.000000	-0.000004	-0.000000	0.000000	0.000000
61.251360	12.869041	24.043508	0.674196	-0.950196	2.172423	0.000000	-0.113501	0.000000	-0.000004	-0.000000	0.000000	0.000000
61.692320	12.438984	24.616978	0.304778	-0.345358	2.136039	0.000000	-0.051676	0.000000	-0.000004	-0.000000	0.000000	0.000000
62.134530	12.327427	24.647499	-0.020585	0.214695	2.126768	0.000000	0.004345	0.000000	-0.000004	-0.000000	0.000000	0.000000
62.431853	12.346842	24.523583	-0.044714	0.202075	2.128060	0.000000	0.004345	0.000000	-0.000004	-0.000000	0.000000	0.000000
62.765186	12.385668	24.393582	-0.071765	0.187928	2.129509	0.000000	0.004345	0.000000	-0.000005	-0.000000	0.000000	0.000000
63.098520	12.442528	24.273013	-0.098816	0.173781	2.130957	0.000000	0.004345	0.000000	-0.000005	-0.000000	0.000000	0.000000
63.433103	12.517738	24.161476	-0.125969	0.159580	2.132411	0.000000	0.004345	0.000000	-0.000005	-0.000000	0.000000	0.000000
63.730426	12.599819	24.070334	-0.119198	0.087931	2.133703	0.000000	-0.000888	0.000000	-0.000005	-0.000000	0.000000	0.000000
64.171386	12.865365	23.727690	-0.485285	0.686154	2.146851	0.000000	0.060577	0.000000	-0.000005	-0.000001	0.000000	0.000000
64.612346	13.462290	22.869264	-0.873544	1.253158	2.187229	0.000000	0.122733	0.000000	-0.000005	-0.000001	0.000000	0.000000
65.053306	14.417865	21.534115	-1.301712	1.763144	2.255297	0.000000	0.186285	0.000000	-0.000006	-0.000001	0.000000	0.000000
65.494266	15.775748	19.782991	-1.789351	2.192908	2.351830	0.000000	0.251960	0.000000	-0.000006	-0.000001	0.000000	0.000000
65.940226	17.621142	17.670782	-2.363434	2.523653	2.479499	0.000000	0.320906	0.000000	-0.000007	-0.000001	0.000000	0.000000
66.489286	19.986664	15.307830	-1.919376	1.805383	2.635333	0.000000	0.245893	0.000000	-0.000007	-0.000001	0.000000	0.000000
67.038346	21.786772	13.658805	-1.339743	1.215706	2.748720	0.000000	0.166519	0.000000	-0.000008	-0.000001	0.000000	0.000000
67.587406	22.894315	12.606250	-0.665478	0.712622	2.817649	0.000000	0.084191	0.000000	-0.000008	-0.000000	0.000000	0.000000
68.136466	23.231061	12.075195	0.055794	0.260295	2.840898	0.000000	0.000370	0.000000	-0.000008	-0.000000	0.000000	0.000000
68.435038	23.237830	11.908931	-0.017762	0.265016	2.843224	0.000000	0.007793	0.000000	-0.000008	-0.000000	0.000000	0.000000
68.768372	23.254454	11.742239	-0.032111	0.235060	2.845822	0.000000	0.007793	0.000000	-0.000008	-0.000000	0.000000	0.000000
69.101705	23.280644	11.595518	-0.046460	0.205104	2.848420	0.000000	0.007793	0.000000	-0.000008	-0.000000	0.000000	0.000000
69.436288	23.316552	11.468330	-0.060862	0.175035	2.851027	0.000000	0.007793	0.000000	-0.000008	-0.000000	0.000000	0.000000
69.733611	23.356549	11.372190	-0.134692	0.178031	2.853344	0.000000	0.015249	0.000000	-0.000008	-0.000000	0.000000	0.000000
70.282671	23.103327	11.404392	0.593155	-0.237026	2.838535	0.000000	-0.069113	0.000000	-0.000009	0.000000	0.000000	0.000000
