#ParticleID	Turn	x[m]	xp	y[m]	yp	z[m]	dE[GeV]# s	beta_x	beta_y	alpha_x	alpha_y	D_x	D_y	D_px	D_py	orbit_x	orbit_px	orbit_y	orbit_py
0.300000	11.829415	24.956711	-0.013013	-0.027736	2.618229	0.000000	-0.000032	0.000000	0.000000	0.000000	0.000000	0.000000
0.601250	11.844929	24.977062	-0.038484	-0.039817	2.618219	0.000000	-0.000032	0.000000	0.000000	0.000000	0.000000	0.000000
0.898573	11.875287	25.004283	-0.034501	-0.113057	2.618210	0.000000	-0.006453	0.000000	0.000000	0.000000	0.000000	0.000000
1.339533	12.058038	24.826660	-0.381510	0.514335	2.631658	0.000000	0.067506	0.000000	0.000000	0.000000	0.000000	0.000000
1.780493	12.553324	24.103973	-0.745949	1.118324	2.677857	0.000000	0.142235	0.000000	0.000000	0.000000	0.000000	0.000000
2.221453	13.383772	22.869103	-1.144469	1.671431	2.757335	0.000000	0.218583	0.000000	0.000001	0.000000	0.000000	0.000000
2.662413	14.587324	21.178236	-1.595276	2.148489	2.870995	0.000000	0.297421	0.000000	0.000001	0.000000	0.000000	0.000000
3.108373	16.239766	19.083506	-2.123265	2.528923	3.021994	0.000000	0.380136	0.000000	0.000001	0.000000	0.000000	0.000000
3.657433	18.358705	16.730916	-1.713102	1.781128	3.205440	0.000000	0.287098	0.000000	0.000001	0.000000	0.000000	0.000000
4.206493	19.957718	15.125427	-1.181933	1.160199	3.336327	0.000000	0.188968	0.000000	0.000001	0.000000	0.000000	0.000000
4.755553	20.923860	14.152684	-0.567278	0.621909	3.412333	0.000000	0.087486	0.000000	0.000001	0.000000	0.000000	0.000000
5.304613	21.188885	13.743402	0.087446	0.127915	3.432112	0.000000	-0.015547	0.000000	0.000001	0.000000	0.000000	0.000000
5.603185	21.173938	13.652236	0.017978	0.141516	3.430147	0.000000	-0.006580	0.000000	0.000001	0.000000	0.000000	0.000000
5.936519	21.167202	13.566193	0.002231	0.116611	3.427954	0.000000	-0.006580	0.000000	0.000002	0.000000	0.000000	0.000000
6.269852	21.170964	13.496754	-0.013517	0.091706	3.425760	0.000000	-0.006580	0.000000	0.000002	0.000000	0.000000	0.000000
6.604435	21.185298	13.443751	-0.029324	0.066708	3.423558	0.000000	-0.006580	0.000000	0.000002	0.000000	0.000000	0.000000
6.901758	21.206912	13.410689	-0.098779	0.079532	3.421602	0.000000	0.002360	0.000000	0.000002	0.000000	0.000000	0.000000
7.450818	20.953884	13.583878	0.556889	-0.396822	3.394697	0.000000	-0.100218	0.000000	0.000002	0.000000	0.000000	0.000000
7.999878	19.998292	14.292520	1.173222	-0.901442	3.311877	0.000000	-0.201018	0.000000	0.000002	0.000000	0.000000	0.000000
8.548938	18.407634	15.587090	1.706685	-1.470269	3.174610	0.000000	-0.298253	0.000000	0.000002	0.000000	0.000000	0.000000
9.097998	16.294266	17.559797	2.119595	-2.143820	2.985332	0.000000	-0.390197	0.000000	0.000002	-0.000000	0.000000	0.000000
9.543958	14.645337	19.317640	1.591034	-1.781227	2.829625	0.000000	-0.308494	0.000000	0.000002	-0.000000	0.000000	0.000000
9.984918	13.445849	20.698712	1.139459	-1.338820	2.710837	0.000000	-0.230789	0.000000	0.000002	0.000000	0.000000	0.000000
10.425878	12.620240	21.661161	0.739943	-0.835497	2.625702	0.000000	-0.155712	0.000000	0.000002	0.000000	0.000000	0.000000
10.866838	12.130790	22.161197	0.374233	-0.294159	2.573251	0.000000	-0.082409	0.000000	0.000002	0.000000	0.000000	0.000000
11.309048	11.954999	22.175553	0.054833	0.206122	2.552866	0.000000	-0.016305	0.000000	0.000002	0.000000	0.000000	0.000000
11.606371	11.929810	22.057139	0.029888	0.192145	2.548018	0.000000	-0.016305	0.000000	0.000002	0.000000	0.000000	0.000000
12.086371	11.920448	21.883511	-0.010383	0.169580	2.540192	0.000000	-0.016305	0.000000	0.000002	0.000000	0.000000	0.000000
12.566371	11.949746	21.731546	-0.050655	0.147015	2.532366	0.000000	-0.016305	0.000000	0.000002	0.000000	0.000000	0.000000
13.046371	12.017705	21.601243	-0.090926	0.124450	2.524539	0.000000	-0.016305	0.000000	0.000002	0.000000	0.000000	0.000000
13.526371	12.124324	21.492602	-0.131197	0.101885	2.516713	0.000000	-0.016305	0.000000	0.000002	0.000000	0.000000	0.000000
14.007621	12.270032	21.405426	-0.171573	0.079261	2.508866	0.000000	-0.016305	0.000000	0.000002	0.000000	0.000000	0.000000
14.304943	12.379474	21.362450	-0.166161	0.012898	2.504019	0.000000	-0.022445	0.000000	0.000003	0.000000	0.000000	0.000000
14.745903	12.684726	21.117237	-0.528709	0.541075	2.509751	0.000000	0.048471	0.000000	0.000003	0.000000	0.000000	0.000000
15.186863	13.319119	20.415332	-0.915413	1.044634	2.546847	0.000000	0.119940	0.000000	0.000003	0.000000	0.000000	0.000000
15.627823	14.311638	19.288671	-1.343939	1.500663	2.615728	0.000000	0.192774	0.000000	0.000003	0.000000	0.000000	0.000000
16.068783	15.707627	17.788515	-1.833866	1.888412	2.717180	0.000000	0.267804	0.000000	0.000003	0.000000	0.000000	0.000000
16.514743	17.594520	15.961621	-2.412335	2.190990	2.854051	0.000000	0.346346	0.000000	0.000003	0.000001	0.000000	0.000000
17.063803	20.017725	13.921604	-1.974910	1.546413	3.020489	0.000000	0.259025	0.000000	0.000004	0.000000	0.000000	0.000000
17.612863	21.880676	12.525134	-1.397987	1.011983	3.137648	0.000000	0.167110	0.000000	0.000004	0.000000	0.000000	0.000000
18.161923	23.051783	11.672744	-0.722317	0.549634	3.203451	0.000000	0.072231	0.000000	0.000004	0.000000	0.000000	0.000000
18.710983	23.448325	11.303720	0.004373	0.126435	3.216731	0.000000	-0.023929	0.000000	0.000004	0.000000	0.000000	0.000000
19.009556	23.486111	11.218663	-0.069665	0.128912	3.212096	0.000000	-0.015525	0.000000	0.000004	0.000000	0.000000	0.000000
19.342889	23.537309	11.142791	-0.083927	0.098706	3.206921	0.000000	-0.015525	0.000000	0.000004	0.000000	0.000000	0.000000
19.676223	23.598014	11.087056	-0.098189	0.068500	3.201746	0.000000	-0.015525	0.000000	0.000004	0.000000	0.000000	0.000000
20.010806	23.668802	11.051225	-0.229772	0.092935	3.196571	0.000000	0.000313	0.000000	0.000004	0.000000	0.000000	0.000000
20.308129	23.809367	11.004031	-0.305205	0.094549	3.196664	0.000000	0.008665	0.000000	0.000004	0.000000	0.000000	0.000000
20.857189	23.733876	11.122728	0.441882	-0.312008	3.175206	0.000000	-0.086713	0.000000	0.000004	-0.000000	0.000000	0.000000
21.406249	22.850348	11.697384	1.157757	-0.740788	3.101726	0.000000	-0.180552	0.000000	0.000004	-0.000000	0.000000	0.000000
21.955309	21.221191	12.768931	1.791853	-1.222333	2.977526	0.000000	-0.271190	0.000000	0.000004	-0.000000	0.000000	0.000000
22.504369	18.961481	14.413692	2.299382	-1.790943	2.804811	0.000000	-0.357016	0.000000	0.000004	-0.000000	0.000000	0.000000
22.950329	17.180773	15.890230	1.707691	-1.506010	2.662887	0.000000	-0.279817	0.000000	0.000004	-0.000000	0.000000	0.000000
23.391289	15.904006	17.067409	1.198718	-1.153412	2.555819	0.000000	-0.206259	0.000000	0.000003	-0.000000	0.000000	0.000000
23.832249	15.050359	17.909207	0.744510	-0.748336	2.480639	0.000000	-0.135051	0.000000	0.000003	-0.000000	0.000000	0.000000
24.273209	14.580830	18.377324	0.324318	-0.309210	2.436490	0.000000	-0.065380	0.000000	0.000003	-0.000000	0.000000	0.000000
24.715418	14.474081	18.450213	-0.045651	0.098671	2.422866	0.000000	-0.002395	0.000000	0.000003	0.000000	0.000000	0.000000
25.012741	14.507348	18.396376	-0.066236	0.082400	2.422154	0.000000	-0.002395	0.000000	0.000003	0.000000	0.000000	0.000000
25.346075	14.559197	18.347524	-0.089313	0.064157	2.421356	0.000000	-0.002395	0.000000	0.000003	0.000000	0.000000	0.000000
25.679408	14.626432	18.310834	-0.112391	0.045915	2.420557	0.000000	-0.002395	0.000000	0.000003	0.000000	0.000000	0.000000
26.013991	14.709093	18.286607	-0.016226	-0.120746	2.419731	0.000000	-0.022026	0.000000	0.000003	-0.000000	0.000000	0.000000
26.311314	14.724753	18.363312	-0.000336	-0.182273	2.413182	0.000000	-0.027944	0.000000	0.000003	-0.000000	0.000000	0.000000
26.752274	14.906490	18.324861	-0.413367	0.269140	2.415969	0.000000	0.040593	0.000000	0.000003	0.000000	0.000000	0.000000
27.193234	15.459407	17.892199	-0.845284	0.708308	2.449050	0.000000	0.109592	0.000000	0.000003	0.000000	0.000000	0.000000
27.634194	16.408765	17.085012	-1.315819	1.115248	2.512803	0.000000	0.179839	0.000000	0.000004	0.000000	0.000000	0.000000
28.075154	17.797938	15.940027	-1.846470	1.471446	2.607954	0.000000	0.252134	0.000000	0.000004	0.000000	0.000000	0.000000
28.521114	19.714534	14.492094	-2.466438	1.761607	2.737189	0.000000	0.327744	0.000000	0.000004	0.000000	0.000000	0.000000
29.070174	22.150534	12.878665	-1.943973	1.194268	2.894479	0.000000	0.244358	0.000000	0.000004	0.000000	0.000000	0.000000
29.619234	23.933547	11.838155	-1.284195	0.711994	3.004727	0.000000	0.156638	0.000000	0.000004	0.000000	0.000000	0.000000
30.168294	24.937628	11.296450	-0.533708	0.280433	3.065977	0.000000	0.066140	0.000000	0.000004	0.000000	0.000000	0.000000
30.717354	25.091856	11.214967	0.254477	-0.131152	3.077141	0.000000	-0.025532	0.000000	0.000004	-0.000000	0.000000	0.000000
31.015927	24.982723	11.283818	0.176595	-0.128750	3.071918	0.000000	-0.017493	0.000000	0.000004	-0.000000	0.000000	0.000000
31.349260	24.869579	11.379661	0.162837	-0.158780	3.066087	0.000000	-0.017493	0.000000	0.000004	-0.000000	0.000000	0.000000
31.682593	24.765607	11.495524	0.149078	-0.188811	3.060257	0.000000	-0.017493	0.000000	0.000004	-0.000000	0.000000	0.000000
32.017177	24.670470	11.631956	0.135268	-0.218954	3.054404	0.000000	-0.017493	0.000000	0.000004	-0.000000	0.000000	0.000000
32.314499	24.593682	11.770120	0.058739	-0.214988	3.049203	0.000000	-0.009526	0.000000	0.000004	-0.000000	0.000000	0.000000
32.863559	24.107875	12.245541	0.820821	-0.656005	3.019095	0.000000	-0.099985	0.000000	0.000004	-0.000000	0.000000	0.000000
33.412619	22.812250	13.227914	1.524925	-1.143748	2.939733	0.000000	-0.188672	0.000000	0.000004	-0.000000	0.000000	0.000000
33.961679	20.798324	14.787212	2.121315	-1.712957	2.812526	0.000000	-0.274011	0.000000	0.000004	-0.000000	0.000000	0.000000
34.510739	18.208350	17.034501	2.567866	-2.404177	2.639729	0.000000	-0.354491	0.000000	0.000003	-0.000001	0.000000	0.000000
34.956699	16.194664	19.044551	1.963706	-2.084246	2.497980	0.000000	-0.281571	0.000000	0.000003	-0.000000	0.000000	0.000000
35.397659	14.693171	20.706450	1.454266	-1.670232	2.389198	0.000000	-0.212287	0.000000	0.000003	-0.000000	0.000000	0.000000
35.838619	13.610079	21.968188	1.011267	-1.180224	2.310406	0.000000	-0.145420	0.000000	0.000003	-0.000000	0.000000	0.000000
36.279579	12.895903	22.772359	0.614470	-0.636517	2.260706	0.000000	-0.080210	0.000000	0.000003	-0.000000	0.000000	0.000000
36.721789	12.517325	23.082673	0.276335	-0.120507	2.239507	0.000000	-0.021404	0.000000	0.000003	-0.000000	0.000000	0.000000
37.019112	12.360605	23.158218	0.250769	-0.133575	2.233143	0.000000	-0.021404	0.000000	0.000002	-0.000000	0.000000	0.000000
37.352445	12.202980	23.252151	0.222105	-0.148226	2.226008	0.000000	-0.021404	0.000000	0.000002	-0.000000	0.000000	0.000000
37.685779	12.064465	23.355852	0.193442	-0.162876	2.218873	0.000000	-0.021404	0.000000	0.000002	-0.000000	0.000000	0.000000
38.020362	11.944646	23.469764	0.164671	-0.177582	2.211712	0.000000	-0.021404	0.000000	0.000002	-0.000000	0.000000	0.000000
38.317684	11.854326	23.579247	0.168174	-0.248472	2.205348	0.000000	-0.026813	0.000000	0.000002	-0.000000	0.000000	0.000000
38.758644	11.857211	23.537227	-0.174742	0.343401	2.207450	0.000000	0.036357	0.000000	0.000002	-0.000000	0.000000	0.000000
39.199604	12.164884	22.978145	-0.525641	0.919649	2.237473	0.000000	0.099941	0.000000	0.000002	-0.000000	0.000000	0.000000
39.640564	12.791403	21.927439	-0.900556	1.454054	2.295758	0.000000	0.164663	0.000000	0.000002	-0.000000	0.000000	0.000000
40.081524	13.765391	20.432914	-1.316614	1.922301	2.382968	0.000000	0.231261	0.000000	0.000002	0.000000	0.000000	0.000000
40.527484	15.148911	18.540003	-1.796648	2.304363	2.501569	0.000000	0.300898	0.000000	0.000002	0.000000	0.000000	0.000000
41.076544	16.914676	16.412940	-1.400292	1.592513	2.646253	0.000000	0.225350	0.000000	0.000002	-0.000000	0.000000	0.000000
41.625604	18.187972	15.001071	-0.905026	0.994095	2.748297	0.000000	0.145806	0.000000	0.000002	-0.000000	0.000000	0.000000
42.174664	18.878859	14.203832	-0.345834	0.466483	2.805890	0.000000	0.063675	0.000000	0.000002	-0.000000	0.000000	0.000000
42.723724	18.938537	13.964437	0.237786	-0.027901	2.818012	0.000000	-0.019585	0.000000	0.000002	-0.000000	0.000000	0.000000
43.022297	18.830966	13.965695	0.171980	-0.012798	2.814363	0.000000	-0.012222	0.000000	0.000002	-0.000000	0.000000	0.000000
43.502297	18.678463	13.994481	0.145736	-0.047173	2.808496	0.000000	-0.012222	0.000000	0.000002	-0.000000	0.000000	0.000000
43.982297	18.551153	14.056268	0.119492	-0.081549	2.802630	0.000000	-0.012222	0.000000	0.000002	-0.000000	0.000000	0.000000
44.462297	18.449038	14.151055	0.093248	-0.115924	2.796763	0.000000	-0.012222	0.000000	0.000002	-0.000000	0.000000	0.000000
44.942297	18.372117	14.278843	0.067004	-0.150300	2.790896	0.000000	-0.012222	0.000000	0.000001	-0.000000	0.000000	0.000000
45.423547	18.320515	14.439914	-0.050078	-0.113221	2.785032	0.000000	0.001576	0.000000	0.000001	-0.000000	0.000000	0.000000
45.720870	18.355131	14.513441	-0.114306	-0.096155	2.785500	0.000000	0.008854	0.000000	0.000001	-0.000000	0.000000	0.000000
46.269930	18.171581	14.899807	0.446624	-0.611686	2.767792	0.000000	-0.073262	0.000000	0.000001	-0.000000	0.000000	0.000000
46.818990	17.385820	15.872748	0.976007	-1.170786	2.705289	0.000000	-0.154079	0.000000	0.000001	-0.000000	0.000000	0.000000
47.368050	16.053348	17.501564	1.436450	-1.813278	2.599098	0.000000	-0.232163	0.000000	0.000001	-0.000000	0.000000	0.000000
47.917110	14.268286	19.902271	1.795428	-2.584927	2.451103	0.000000	-0.306129	0.000000	0.000001	-0.000000	0.000000	0.000000
48.363070	12.879033	22.036810	1.330804	-2.181341	2.329873	0.000000	-0.237835	0.000000	0.000001	-0.000000	0.000000	0.000000
48.804030	11.885548	23.745912	0.930747	-1.679776	2.239456	0.000000	-0.172648	0.000000	0.000000	-0.000000	0.000000	0.000000
49.244990	11.224868	24.977154	0.573214	-1.101783	2.177323	0.000000	-0.109427	0.000000	0.000000	-0.000000	0.000000	0.000000
49.685950	10.866807	25.674514	0.241869	-0.473659	2.142768	0.000000	-0.047452	0.000000	0.000000	-0.000000	0.000000	0.000000
50.128160	10.795138	25.805982	-0.052069	0.112683	2.135406	0.000000	0.008746	0.000000	0.000000	-0.000000	0.000000	0.000000
50.425482	10.834312	25.742445	-0.079686	0.101015	2.138007	0.000000	0.008746	0.000000	0.000000	-0.000000	0.000000	0.000000
50.758816	10.897756	25.679463	-0.110648	0.087934	2.140922	0.000000	0.008746	0.000000	-0.000000	-0.000000	0.000000	0.000000
51.092149	10.981842	25.625200	-0.141610	0.074853	2.143838	0.000000	0.008746	0.000000	-0.000000	-0.000000	0.000000	0.000000
51.426732	11.086776	25.580023	-0.082745	-0.145795	2.146742	0.000000	-0.008670	0.000000	-0.000000	-0.000000	0.000000	0.000000
51.724055	11.144008	25.670248	-0.082417	-0.220616	2.144165	0.000000	-0.013928	0.000000	-0.000000	-0.000000	0.000000	0.000000
52.165015	11.362164	25.579255	-0.414189	0.426184	2.151611	0.000000	0.047734	0.000000	-0.000000	-0.000000	0.000000	0.000000
52.605975	11.880123	24.924240	-0.764884	1.053593	2.186342	0.000000	0.109939	0.000000	-0.000001	-0.000000	0.000000	0.000000
53.046935	12.721549	23.735006	-1.150524	1.633064	2.248752	0.000000	0.173396	0.000000	-0.000001	-0.000000	0.000000	0.000000
53.487895	13.924885	22.065663	-1.588728	2.138233	2.339553	0.000000	0.238828	0.000000	-0.000001	-0.000000	0.000000	0.000000
53.933855	15.565730	19.967202	-2.103755	2.547447	2.461283	0.000000	0.307379	0.000000	-0.000001	-0.000000	0.000000	0.000000
54.482915	17.678213	17.605992	-1.720925	1.778395	2.609872	0.000000	0.233073	0.000000	-0.000001	-0.000000	0.000000	0.000000
55.031975	19.300660	16.015196	-1.216537	1.136015	2.716467	0.000000	0.154634	0.000000	-0.000001	-0.000000	0.000000	0.000000
55.581035	20.318468	15.081505	-0.626219	0.574550	2.779175	0.000000	0.073452	0.000000	-0.000001	-0.000000	0.000000	0.000000
56.130095	20.659745	14.738414	0.008332	0.054008	2.796886	0.000000	-0.009033	0.000000	-0.000002	-0.000000	0.000000	0.000000
56.428668	20.691328	14.689268	-0.060131	0.072086	2.796371	0.000000	-0.001726	0.000000	-0.000002	-0.000000	0.000000	0.000000
56.762001	20.736804	14.648814	-0.076299	0.049276	2.795796	0.000000	-0.001726	0.000000	-0.000002	-0.000000	0.000000	0.000000
57.095334	20.793060	14.623567	-0.092467	0.026466	2.795221	0.000000	-0.001726	0.000000	-0.000002	-0.000000	0.000000	0.000000
57.429918	20.860365	14.613517	-0.108696	0.003570	2.794644	0.000000	-0.001726	0.000000	-0.000002	-0.000000	0.000000	0.000000
57.727240	20.929289	14.617444	-0.177802	0.021417	2.794131	0.000000	0.005575	0.000000	-0.000002	-0.000000	0.000000	0.000000
58.276300	20.767417	14.874693	0.470872	-0.492711	2.774551	0.000000	-0.076790	0.000000	-0.000002	-0.000000	0.000000	0.000000
58.825360	19.907353	15.712360	1.086286	-1.041933	2.710056	0.000000	-0.157794	0.000000	-0.000002	-0.000000	0.000000	0.000000
59.374420	18.409845	17.190110	1.624971	-1.665370	2.601789	0.000000	-0.235999	0.000000	-0.000002	0.000000	0.000000	0.000000
59.923480	16.380672	19.413198	2.048875	-2.407428	2.451670	0.000000	-0.310017	0.000000	-0.000002	0.000000	0.000000	0.000000
60.369440	14.792359	21.389171	1.525296	-2.004700	2.328705	0.000000	-0.241732	0.000000	-0.000002	0.000000	0.000000	0.000000
60.810400	13.649796	22.945877	1.075615	-1.512131	2.236560	0.000000	-0.176597	0.000000	-0.000002	-0.000000	0.000000	0.000000
61.251360	12.880728	24.036061	0.675076	-0.950760	2.172666	0.000000	-0.113473	0.000000	-0.000002	-0.000000	0.000000	0.000000
61.692320	12.450021	24.610123	0.305380	-0.346131	2.136296	0.000000	-0.051642	0.000000	-0.000002	-0.000000	0.000000	0.000000
62.134530	12.338045	24.641407	-0.020209	0.213764	2.127042	0.000000	0.004385	0.000000	-0.000002	-0.000000	0.000000	0.000000
62.431853	12.357230	24.518044	-0.044317	0.201147	2.128346	0.000000	0.004385	0.000000	-0.000002	-0.000000	0.000000	0.000000
62.765186	12.395784	24.388662	-0.071345	0.187001	2.129808	0.000000	0.004385	0.000000	-0.000002	-0.000000	0.000000	0.000000
63.098520	12.452357	24.268710	-0.098373	0.172856	2.131270	0.000000	0.004385	0.000000	-0.000002	-0.000000	0.000000	0.000000
63.433103	12.527261	24.157791	-0.125502	0.158657	2.132737	0.000000	0.004385	0.000000	-0.000002	-0.000000	0.000000	0.000000
63.730426	12.609058	24.067198	-0.118688	0.087018	2.134041	0.000000	-0.000848	0.000000	-0.000002	-0.000000	0.000000	0.000000
64.171386	12.874242	23.725387	-0.484973	0.685182	2.147208	0.000000	0.060626	0.000000	-0.000003	-0.000000	0.000000	0.000000
64.612346	13.470973	22.867829	-0.873415	1.252171	2.187610	0.000000	0.122791	0.000000	-0.000003	-0.000000	0.000000	0.000000
65.053306	14.426514	21.533540	-1.301761	1.762187	2.255706	0.000000	0.186354	0.000000	-0.000003	-0.000000	0.000000	0.000000
65.494266	15.784520	19.783231	-1.789581	2.192025	2.352271	0.000000	0.252040	0.000000	-0.000003	-0.000000	0.000000	0.000000
65.940226	17.630204	17.671761	-2.363855	2.522884	2.479978	0.000000	0.320998	0.000000	-0.000003	-0.000001	0.000000	0.000000
66.489286	19.996000	15.309607	-1.919450	1.804690	2.635857	0.000000	0.245969	0.000000	-0.000003	-0.000000	0.000000	0.000000
67.038346	21.795994	13.661324	-1.339464	1.215039	2.749280	0.000000	0.166577	0.000000	-0.000004	-0.000000	0.000000	0.000000
67.587406	22.903045	12.609509	-0.664866	0.711933	2.818236	0.000000	0.084230	0.000000	-0.000004	-0.000000	0.000000	0.000000
68.136466	23.238955	12.079244	0.056696	0.259536	2.841501	0.000000	0.000389	0.000000	-0.000004	-0.000000	0.000000	0.000000
68.435038	23.245195	11.913422	-0.016874	0.264286	2.843834	0.000000	0.007814	0.000000	-0.000004	-0.000000	0.000000	0.000000
68.768372	23.261226	11.747209	-0.031218	0.234352	2.846438	0.000000	0.007814	0.000000	-0.000004	-0.000000	0.000000	0.000000
69.101705	23.286819	11.600952	-0.045562	0.204418	2.849043	0.000000	0.007814	0.000000	-0.000004	-0.000000	0.000000	0.000000
69.436288	23.322124	11.474215	-0.059959	0.174372	2.851657	0.000000	0.007814	0.000000	-0.000004	-0.000000	0.000000	0.000000
69.733611	23.361583	11.378465	-0.133795	0.177403	2.853981	0.000000	0.015271	0.000000	-0.000004	-0.000000	0.000000	0.000000
70.282671	23.107292	11.411455	0.594192	-0.237843	2.839178	0.000000	-0.069111	0.000000	-0.000004	0.000000	0.000000	0.000000
