#ParticleID	Turn	x[m]	xp	y[m]	yp	z[m]	dE[GeV]# s	beta_x	beta_y	alpha_x	alpha_y	D_x	D_y	D_px	D_py	orbit_x	orbit_px	orbit_y	orbit_py
0.300000	11.808639	25.039849	-0.010474	-0.027050	2.618119	0.000000	0.000010	0.000000	-0.000001	0.000002	0.000000	0.000000
0.601250	11.822635	25.059773	-0.035987	-0.039089	2.618122	0.000000	0.000010	0.000000	-0.000000	0.000002	0.000000	0.000000
0.898573	11.851522	25.086550	-0.032105	-0.112491	2.618124	0.000000	-0.006411	0.000000	0.000000	0.000002	0.000000	0.000000
1.339533	12.031903	24.907469	-0.378511	0.517062	2.631590	0.000000	0.067547	0.000000	0.000001	0.000002	0.000000	0.000000
1.780493	12.524229	24.181465	-0.742210	1.123090	2.677807	0.000000	0.142274	0.000000	0.000002	0.000002	0.000000	0.000000
2.221453	13.350991	22.941571	-1.139818	1.678017	2.757301	0.000000	0.218621	0.000000	0.000002	0.000002	0.000000	0.000000
2.662413	14.549964	21.244201	-1.589501	2.156596	2.870977	0.000000	0.297458	0.000000	0.000003	0.000002	0.000000	0.000000
3.108373	16.196653	19.141692	-2.116091	2.538185	3.021992	0.000000	0.380173	0.000000	0.000004	0.000002	0.000000	0.000000
3.657433	18.308276	16.780233	-1.707030	1.788114	3.205457	0.000000	0.287135	0.000000	0.000005	0.000002	0.000000	0.000000
4.206493	19.901429	15.168089	-1.177393	1.165407	3.336364	0.000000	0.189004	0.000000	0.000006	0.000001	0.000000	0.000000
4.755553	20.863579	14.190430	-0.564591	0.625709	3.412389	0.000000	0.087521	0.000000	0.000006	0.000001	0.000000	0.000000
5.304613	21.126764	13.777620	0.088091	0.130578	3.432185	0.000000	-0.015515	0.000000	0.000007	0.000001	0.000000	0.000000
5.603185	21.111346	13.684800	0.018746	0.144302	3.430230	0.000000	-0.006548	0.000000	0.000007	0.000001	0.000000	0.000000
5.936519	21.104113	13.596887	0.002952	0.119437	3.428047	0.000000	-0.006548	0.000000	0.000008	0.000001	0.000000	0.000000
6.269852	21.107410	13.525551	-0.012843	0.094572	3.425864	0.000000	-0.006548	0.000000	0.000008	0.000001	0.000000	0.000000
6.604435	21.121309	13.470617	-0.028697	0.069614	3.423673	0.000000	-0.006548	0.000000	0.000008	0.000001	0.000000	0.000000
6.901758	21.142563	13.435816	-0.098023	0.082538	3.421725	0.000000	0.002392	0.000000	0.000009	0.000001	0.000000	0.000000
7.450818	20.889893	13.606081	0.555487	-0.394472	3.394837	0.000000	-0.100190	0.000000	0.000009	0.000001	0.000000	0.000000
7.999878	19.936988	14.312423	1.169760	-0.899579	3.312030	0.000000	-0.200995	0.000000	0.000009	0.000001	0.000000	0.000000
8.548938	18.351158	15.605153	1.701407	-1.468761	3.174774	0.000000	-0.298235	0.000000	0.000010	0.000000	0.000000	0.000000
9.097998	16.244416	17.576350	2.112875	-2.142559	2.985504	0.000000	-0.390185	0.000000	0.000010	-0.000000	0.000000	0.000000
9.543958	14.600806	19.332766	1.585784	-1.779299	2.829804	0.000000	-0.308477	0.000000	0.000010	0.000000	0.000000	0.000000
9.984918	13.405395	20.711876	1.135428	-1.336317	2.711024	0.000000	-0.230767	0.000000	0.000010	0.000000	0.000000	0.000000
10.425878	12.582873	21.671906	0.736946	-0.832533	2.625900	0.000000	-0.155686	0.000000	0.000010	0.000001	0.000000	0.000000
10.866838	12.095662	22.169174	0.372134	-0.290870	2.573461	0.000000	-0.082377	0.000000	0.000010	0.000001	0.000000	0.000000
11.309048	11.921368	22.180532	0.053450	0.209579	2.553091	0.000000	-0.016267	0.000000	0.000011	0.000001	0.000000	0.000000
11.606371	11.897020	22.060068	0.028438	0.195585	2.548254	0.000000	-0.016267	0.000000	0.000011	0.000001	0.000000	0.000000
12.086371	11.889102	21.883149	-0.011941	0.172994	2.540445	0.000000	-0.016267	0.000000	0.000012	0.000001	0.000000	0.000000
12.566371	11.919946	21.727918	-0.052320	0.150403	2.532636	0.000000	-0.016267	0.000000	0.000012	0.000001	0.000000	0.000000
13.046371	11.989555	21.594375	-0.092698	0.127812	2.524827	0.000000	-0.016267	0.000000	0.000013	0.000001	0.000000	0.000000
13.526371	12.097927	21.482519	-0.133077	0.105221	2.517019	0.000000	-0.016267	0.000000	0.000013	0.000001	0.000000	0.000000
14.007621	12.245497	21.392144	-0.173561	0.082571	2.509189	0.000000	-0.016267	0.000000	0.000014	0.000001	0.000000	0.000000
14.304943	12.356141	21.347204	-0.168276	0.016235	2.504352	0.000000	-0.022408	0.000000	0.000014	0.000001	0.000000	0.000000
14.745903	12.663048	21.099251	-0.530361	0.543928	2.510103	0.000000	0.048517	0.000000	0.000015	0.000001	0.000000	0.000000
15.186863	13.298723	20.395092	-0.916677	1.046873	2.547221	0.000000	0.119995	0.000000	0.000016	0.000002	0.000000	0.000000
15.627823	14.292208	19.266765	-1.344874	1.502186	2.616128	0.000000	0.192839	0.000000	0.000016	0.000002	0.000000	0.000000
16.068783	15.688893	17.765608	-1.834513	1.889150	2.717609	0.000000	0.267880	0.000000	0.000018	0.000003	0.000000	0.000000
16.514743	17.576246	15.938422	-2.412725	2.190903	2.854516	0.000000	0.346434	0.000000	0.000019	0.000003	0.000000	0.000000
17.063803	20.000351	13.898241	-1.976147	1.546799	3.020997	0.000000	0.259097	0.000000	0.000021	0.000003	0.000000	0.000000
17.612863	21.865089	12.501077	-1.399983	1.012869	3.138190	0.000000	0.167165	0.000000	0.000022	0.000002	0.000000	0.000000
18.161923	23.038743	11.647411	-0.724932	0.551084	3.204018	0.000000	0.072268	0.000000	0.000023	0.000001	0.000000	0.000000
18.710983	23.438413	11.276439	0.001325	0.128552	3.217312	0.000000	-0.023911	0.000000	0.000023	0.000000	0.000000	0.000000
19.009556	23.478001	11.190187	-0.072688	0.130871	3.212682	0.000000	-0.015506	0.000000	0.000023	0.000000	0.000000	0.000000
19.342889	23.531217	11.113040	-0.086960	0.100573	3.207513	0.000000	-0.015506	0.000000	0.000023	0.000000	0.000000	0.000000
19.676223	23.593948	11.056091	-0.101233	0.070275	3.202344	0.000000	-0.015506	0.000000	0.000023	0.000000	0.000000	0.000000
20.010806	23.666777	11.019104	-0.232818	0.094458	3.197176	0.000000	0.000334	0.000000	0.000024	0.000001	0.000000	0.000000
20.308129	23.809158	10.971029	-0.308258	0.095895	3.197275	0.000000	0.008687	0.000000	0.000024	0.000001	0.000000	0.000000
20.857189	23.737008	11.087734	0.438888	-0.309704	3.175823	0.000000	-0.086711	0.000000	0.000024	-0.000000	0.000000	0.000000
21.406249	22.856638	11.659263	1.155032	-0.737362	3.102339	0.000000	-0.180571	0.000000	0.000024	-0.000001	0.000000	0.000000
21.955309	21.230235	12.726323	1.789591	-1.217541	2.978124	0.000000	-0.271227	0.000000	0.000023	-0.000002	0.000000	0.000000
22.504369	18.972679	14.364921	2.297742	-1.784442	2.805384	0.000000	-0.357073	0.000000	0.000022	-0.000002	0.000000	0.000000
22.950329	17.193455	15.836144	1.705986	-1.500643	2.663438	0.000000	-0.279859	0.000000	0.000021	-0.000002	0.000000	0.000000
23.391289	15.918249	17.009180	1.196869	-1.149419	2.556355	0.000000	-0.206287	0.000000	0.000020	-0.000001	0.000000	0.000000
23.832249	15.066326	17.848131	0.742433	-0.745897	2.481166	0.000000	-0.135065	0.000000	0.000020	-0.000001	0.000000	0.000000
24.273209	14.598763	18.314826	0.321918	-0.308437	2.437014	0.000000	-0.065381	0.000000	0.000020	-0.000000	0.000000	0.000000
24.715418	14.494321	18.387787	-0.048440	0.097903	2.423393	0.000000	-0.002383	0.000000	0.000020	0.000000	0.000000	0.000000
25.012741	14.529239	18.334423	-0.069001	0.081578	2.422685	0.000000	-0.002383	0.000000	0.000020	0.000000	0.000000	0.000000
25.346075	14.582923	18.286138	-0.092052	0.063276	2.421890	0.000000	-0.002383	0.000000	0.000020	0.000000	0.000000	0.000000
25.679408	14.651975	18.250055	-0.115104	0.044975	2.421096	0.000000	-0.002383	0.000000	0.000020	0.000000	0.000000	0.000000
26.013991	14.736442	18.226475	-0.018690	-0.121258	2.420274	0.000000	-0.022018	0.000000	0.000020	0.000000	0.000000	0.000000
26.311314	14.753556	18.303502	-0.002700	-0.182688	2.413727	0.000000	-0.027936	0.000000	0.000020	-0.000000	0.000000	0.000000
26.752274	14.937698	18.266131	-0.416475	0.267114	2.416520	0.000000	0.040615	0.000000	0.000020	0.000001	0.000000	0.000000
27.193234	15.493735	17.835935	-0.849278	0.704763	2.449613	0.000000	0.109628	0.000000	0.000020	0.000001	0.000000	0.000000
27.634194	16.447073	17.032488	-1.320883	1.110345	2.513385	0.000000	0.179890	0.000000	0.000021	0.000002	0.000000	0.000000
28.075154	17.841267	15.892345	-1.852834	1.465407	2.608561	0.000000	0.252200	0.000000	0.000022	0.000002	0.000000	0.000000
28.521114	19.764233	14.450206	-2.474407	1.754707	2.737828	0.000000	0.327827	0.000000	0.000023	0.000003	0.000000	0.000000
29.070174	22.208331	12.843438	-1.950662	1.188965	2.895158	0.000000	0.244420	0.000000	0.000024	0.000002	0.000000	0.000000
29.619234	23.997765	11.808051	-1.289131	0.707911	3.005432	0.000000	0.156677	0.000000	0.000025	0.000001	0.000000	0.000000
30.168294	25.006140	11.270296	-0.536543	0.277279	3.066696	0.000000	0.066155	0.000000	0.000025	0.000000	0.000000	0.000000
30.717354	25.162227	11.191872	0.253944	-0.133602	3.077862	0.000000	-0.025540	0.000000	0.000025	-0.000000	0.000000	0.000000
31.015927	25.053505	11.262245	0.175928	-0.131334	3.072638	0.000000	-0.017500	0.000000	0.000025	-0.000000	0.000000	0.000000
31.349260	24.940792	11.359838	0.162211	-0.161442	3.066804	0.000000	-0.017500	0.000000	0.000025	-0.000000	0.000000	0.000000
31.682593	24.837223	11.477502	0.148494	-0.191550	3.060971	0.000000	-0.017500	0.000000	0.000025	-0.000000	0.000000	0.000000
32.017177	24.742462	11.615792	0.134726	-0.221771	3.055116	0.000000	-0.017500	0.000000	0.000025	-0.000000	0.000000	0.000000
32.314499	24.665986	11.755652	0.058057	-0.217917	3.049913	0.000000	-0.009533	0.000000	0.000025	-0.000000	0.000000	0.000000
32.863559	24.179604	12.234136	0.822542	-0.658687	3.019795	0.000000	-0.100015	0.000000	0.000024	-0.000001	0.000000	0.000000
33.412619	22.880818	13.219408	1.528927	-1.146374	2.940411	0.000000	-0.188724	0.000000	0.000023	-0.000002	0.000000	0.000000
33.961679	20.861366	14.781646	2.127316	-1.715715	2.813170	0.000000	-0.274085	0.000000	0.000022	-0.000003	0.000000	0.000000
34.510739	18.263892	17.032124	2.575441	-2.407263	2.640329	0.000000	-0.354585	0.000000	0.000020	-0.000003	0.000000	0.000000
34.956699	16.244214	19.045117	1.969615	-2.087732	2.498542	0.000000	-0.281650	0.000000	0.000019	-0.000003	0.000000	0.000000
35.397659	14.738137	20.710207	1.458792	-1.673955	2.389730	0.000000	-0.212351	0.000000	0.000018	-0.000002	0.000000	0.000000
35.838619	13.651584	21.975271	1.014616	-1.184014	2.310913	0.000000	-0.145471	0.000000	0.000017	-0.000002	0.000000	0.000000
36.279579	12.934915	22.782750	0.616796	-0.640202	2.261194	0.000000	-0.080248	0.000000	0.000016	-0.000001	0.000000	0.000000
36.721789	12.554692	23.096214	0.277834	-0.123945	2.239981	0.000000	-0.021431	0.000000	0.000016	-0.000001	0.000000	0.000000
37.019112	12.397064	23.173804	0.252323	-0.137016	2.233609	0.000000	-0.021431	0.000000	0.000015	-0.000001	0.000000	0.000000
37.352445	12.238382	23.270032	0.223723	-0.151670	2.226466	0.000000	-0.021431	0.000000	0.000015	-0.000001	0.000000	0.000000
37.685779	12.098766	23.376030	0.195123	-0.166324	2.219323	0.000000	-0.021431	0.000000	0.000015	-0.000001	0.000000	0.000000
38.020362	11.977801	23.492250	0.166416	-0.181033	2.212153	0.000000	-0.021431	0.000000	0.000014	-0.000001	0.000000	0.000000
38.317684	11.886427	23.603786	0.170051	-0.251980	2.205781	0.000000	-0.026839	0.000000	0.000014	-0.000001	0.000000	0.000000
38.758644	11.887976	23.564563	-0.173576	0.340591	2.207875	0.000000	0.036341	0.000000	0.000013	-0.000001	0.000000	0.000000
39.199604	12.194915	23.007603	-0.525134	0.917666	2.237893	0.000000	0.099936	0.000000	0.000013	-0.000000	0.000000	0.000000
39.640564	12.821267	21.958247	-0.900684	1.452987	2.296178	0.000000	0.164669	0.000000	0.000013	-0.000000	0.000000	0.000000
40.081524	13.795650	20.464239	-1.317383	1.922199	2.383393	0.000000	0.231278	0.000000	0.000013	0.000000	0.000000	0.000000
40.527484	15.180157	18.570982	-1.798098	2.305237	2.502004	0.000000	0.300926	0.000000	0.000013	0.000001	0.000000	0.000000
41.076544	16.946874	16.443392	-1.400566	1.592603	2.646699	0.000000	0.225364	0.000000	0.000013	0.000000	0.000000	0.000000
41.625604	18.219812	15.031849	-0.904105	0.993406	2.748746	0.000000	0.145805	0.000000	0.000013	-0.000000	0.000000	0.000000
42.174664	18.909058	14.235813	-0.343783	0.464968	2.806336	0.000000	0.063660	0.000000	0.000013	-0.000001	0.000000	0.000000
42.723724	18.965925	13.998583	0.240823	-0.030352	2.818446	0.000000	-0.019615	0.000000	0.000013	-0.000001	0.000000	0.000000
43.022297	18.856579	14.001238	0.174955	-0.015110	2.814788	0.000000	-0.012252	0.000000	0.000012	-0.000001	0.000000	0.000000
43.502297	18.701215	14.032203	0.148721	-0.049400	2.808908	0.000000	-0.012252	0.000000	0.000012	-0.000001	0.000000	0.000000
43.982297	18.571036	14.096086	0.122486	-0.083691	2.803027	0.000000	-0.012252	0.000000	0.000011	-0.000001	0.000000	0.000000
44.462297	18.466042	14.192889	0.096252	-0.117981	2.797147	0.000000	-0.012252	0.000000	0.000011	-0.000001	0.000000	0.000000
44.942297	18.386233	14.322611	0.070017	-0.152272	2.791267	0.000000	-0.012252	0.000000	0.000010	-0.000001	0.000000	0.000000
45.423547	18.331727	14.485538	-0.047111	-0.114881	2.785389	0.000000	0.001549	0.000000	0.000010	-0.000001	0.000000	0.000000
45.720870	18.364574	14.560035	-0.111346	-0.097638	2.785849	0.000000	0.008827	0.000000	0.000009	-0.000001	0.000000	0.000000
46.269930	18.177626	14.948818	0.449817	-0.614630	2.768124	0.000000	-0.073300	0.000000	0.000009	-0.000001	0.000000	0.000000
46.818990	17.388334	15.925884	0.979207	-1.175400	2.705597	0.000000	-0.154127	0.000000	0.000008	-0.000002	0.000000	0.000000
47.368050	16.052449	17.560828	1.439430	-1.819891	2.599378	0.000000	-0.232221	0.000000	0.000007	-0.000002	0.000000	0.000000
47.917110	14.264331	19.970103	1.797980	-2.594009	2.451350	0.000000	-0.306195	0.000000	0.000006	-0.000002	0.000000	0.000000
48.363070	12.872884	22.112103	1.333192	-2.188922	2.330092	0.000000	-0.237896	0.000000	0.000005	-0.000002	0.000000	0.000000
48.804030	11.877323	23.827101	0.933085	-1.685515	2.239650	0.000000	-0.172703	0.000000	0.000004	-0.000002	0.000000	0.000000
49.244990	11.214564	25.062493	0.575607	-1.105420	2.177495	0.000000	-0.109477	0.000000	0.000003	-0.000002	0.000000	0.000000
49.685950	10.854328	25.762070	0.244427	-0.475028	2.142919	0.000000	-0.047498	0.000000	0.000003	-0.000002	0.000000	0.000000
50.128160	10.780279	25.893717	-0.049266	0.113430	2.135538	0.000000	0.008703	0.000000	0.000002	-0.000002	0.000000	0.000000
50.425482	10.817795	25.829724	-0.076913	0.101800	2.138126	0.000000	0.008703	0.000000	0.000001	-0.000002	0.000000	0.000000
50.758816	10.879402	25.766204	-0.107908	0.088761	2.141028	0.000000	0.008703	0.000000	0.000001	-0.000002	0.000000	0.000000
51.092149	10.961673	25.711376	-0.138904	0.075722	2.143929	0.000000	0.008703	0.000000	0.000000	-0.000002	0.000000	0.000000
51.426732	11.064808	25.665605	-0.080251	-0.145577	2.146820	0.000000	-0.008713	0.000000	-0.000000	-0.000002	0.000000	0.000000
51.724055	11.120570	25.755689	-0.080024	-0.220569	2.144230	0.000000	-0.013972	0.000000	-0.000001	-0.000002	0.000000	0.000000
52.165015	11.336361	25.663656	-0.411201	0.428485	2.151658	0.000000	0.047691	0.000000	-0.000001	-0.000002	0.000000	0.000000
52.605975	11.851373	25.005652	-0.761164	1.058044	2.186371	0.000000	0.109897	0.000000	-0.000002	-0.000002	0.000000	0.000000
53.046935	12.689135	23.811616	-1.145903	1.639462	2.248764	0.000000	0.173355	0.000000	-0.000003	-0.000002	0.000000	0.000000
53.487895	13.887921	22.135876	-1.582994	2.146286	2.339547	0.000000	0.238787	0.000000	-0.000003	-0.000002	0.000000	0.000000
53.933855	15.523054	20.029622	-2.096634	2.556794	2.461260	0.000000	0.307338	0.000000	-0.000004	-0.000002	0.000000	0.000000
54.482915	17.628273	17.659506	-1.714894	1.785365	2.609828	0.000000	0.233034	0.000000	-0.000005	-0.000002	0.000000	0.000000
55.031975	19.244896	16.062128	-1.212023	1.141103	2.716401	0.000000	0.154596	0.000000	-0.000006	-0.000002	0.000000	0.000000
55.581035	20.258731	15.123711	-0.623541	0.578120	2.779090	0.000000	0.073416	0.000000	-0.000007	-0.000001	0.000000	0.000000
56.130095	20.598168	14.777412	0.008986	0.056315	2.796783	0.000000	-0.009066	0.000000	-0.000008	-0.000001	0.000000	0.000000
56.428668	20.629278	14.726813	-0.059361	0.074541	2.796258	0.000000	-0.001758	0.000000	-0.000008	-0.000001	0.000000	0.000000
56.762001	20.674257	14.684706	-0.075576	0.051781	2.795673	0.000000	-0.001758	0.000000	-0.000008	-0.000001	0.000000	0.000000
57.095334	20.730047	14.657772	-0.091792	0.029021	2.795087	0.000000	-0.001758	0.000000	-0.000009	-0.000001	0.000000	0.000000
57.429918	20.796916	14.645996	-0.108068	0.006175	2.794499	0.000000	-0.001758	0.000000	-0.000009	-0.000001	0.000000	0.000000
57.727240	20.865478	14.648360	-0.177053	0.024150	2.793977	0.000000	0.005543	0.000000	-0.000009	-0.000001	0.000000	0.000000
58.276300	20.703962	14.903082	0.469480	-0.490813	2.774381	0.000000	-0.076818	0.000000	-0.000010	-0.000001	0.000000	0.000000
58.825360	19.846564	15.739060	1.082851	-1.040736	2.709873	0.000000	-0.157815	0.000000	-0.000010	-0.000000	0.000000	0.000000
59.374420	18.353846	17.215839	1.619735	-1.664789	2.601596	0.000000	-0.236014	0.000000	-0.000010	-0.000000	0.000000	0.000000
59.923480	16.331247	19.438605	2.042209	-2.407420	2.451470	0.000000	-0.310026	0.000000	-0.000010	0.000000	0.000000	0.000000
60.369440	14.748212	21.414187	1.520087	-2.003833	2.328501	0.000000	-0.241746	0.000000	-0.000010	-0.000000	0.000000	0.000000
60.810400	13.609695	22.969764	1.071614	-1.510449	2.236348	0.000000	-0.176616	0.000000	-0.000010	-0.000000	0.000000	0.000000
61.251360	12.843693	24.058134	0.672100	-0.948341	2.172445	0.000000	-0.113498	0.000000	-0.000011	-0.000001	0.000000	0.000000
61.692320	12.415210	24.629776	0.303292	-0.343084	2.136063	0.000000	-0.051673	0.000000	-0.000011	-0.000001	0.000000	0.000000
62.134530	12.304723	24.658138	-0.021583	0.217253	2.126794	0.000000	0.004348	0.000000	-0.000011	-0.000001	0.000000	0.000000
62.431853	12.324745	24.532704	-0.045757	0.204626	2.128087	0.000000	0.004348	0.000000	-0.000012	-0.000001	0.000000	0.000000
62.765186	12.364284	24.401005	-0.072860	0.190470	2.129537	0.000000	0.004348	0.000000	-0.000012	-0.000001	0.000000	0.000000
63.098520	12.421891	24.278744	-0.099962	0.176314	2.130986	0.000000	0.004348	0.000000	-0.000013	-0.000001	0.000000	0.000000
63.433103	12.497885	24.165514	-0.127166	0.162104	2.132442	0.000000	0.004348	0.000000	-0.000013	-0.000001	0.000000	0.000000
63.730426	12.580691	24.072874	-0.120486	0.090436	2.133735	0.000000	-0.000885	0.000000	-0.000013	-0.000001	0.000000	0.000000
64.171386	12.847191	23.728011	-0.486170	0.688661	2.146885	0.000000	0.060581	0.000000	-0.000014	-0.000001	0.000000	0.000000
64.612346	13.444733	22.867416	-0.874066	1.255553	2.187265	0.000000	0.122737	0.000000	-0.000015	-0.000002	0.000000	0.000000
65.053306	14.400618	21.530245	-1.301895	1.765318	2.255335	0.000000	0.186291	0.000000	-0.000016	-0.000002	0.000000	0.000000
65.494266	15.758517	19.777338	-1.789204	2.194762	2.351872	0.000000	0.251967	0.000000	-0.000017	-0.000003	0.000000	0.000000
65.940226	17.603629	17.663652	-2.362948	2.525098	2.479545	0.000000	0.320914	0.000000	-0.000018	-0.000003	0.000000	0.000000
66.489286	19.969005	15.299143	-1.919599	1.806790	2.635383	0.000000	0.245900	0.000000	-0.000019	-0.000002	0.000000	0.000000
67.038346	21.769740	13.648549	-1.340659	1.217174	2.748774	0.000000	0.166523	0.000000	-0.000021	-0.000002	0.000000	0.000000
67.587406	22.878641	12.594301	-0.667021	0.714256	2.817705	0.000000	0.084194	0.000000	-0.000021	-0.000001	0.000000	0.000000
68.136466	23.217379	12.061309	0.053731	0.262212	2.840955	0.000000	0.000370	0.000000	-0.000022	-0.000000	0.000000	0.000000
68.435038	23.225364	11.893937	-0.019803	0.266841	2.843283	0.000000	0.007795	0.000000	-0.000022	-0.000001	0.000000	0.000000
68.768372	23.243353	11.726050	-0.034161	0.236820	2.845881	0.000000	0.007795	0.000000	-0.000022	-0.000001	0.000000	0.000000
69.101705	23.270913	11.578177	-0.048519	0.206799	2.848480	0.000000	0.007795	0.000000	-0.000022	-0.000001	0.000000	0.000000
69.436288	23.308202	11.449876	-0.062931	0.176665	2.851088	0.000000	0.007795	0.000000	-0.000023	-0.000001	0.000000	0.000000
69.733611	23.349431	11.352785	-0.136757	0.179556	2.853405	0.000000	0.015251	0.000000	-0.000023	-0.000001	0.000000	0.000000
70.282671	23.098586	11.383008	0.590915	-0.234926	2.838597	0.000000	-0.069112	0.000000	-0.000023	0.000000	0.000000	0.000000
