#ParticleID	Turn	x[m]	xp	y[m]	yp	z[m]	dE[GeV]# s	beta_x	beta_y	alpha_x	alpha_y	D_x	D_y	D_px	D_py	orbit_x	orbit_px	orbit_y	orbit_py
0.300000	11.803433	25.059280	-0.010048	-0.026781	2.618296	0.000000	-0.000057	0.000000	-0.000003	0.000002	0.000000	0.000000
0.601250	11.817176	25.079040	-0.035573	-0.038811	2.618279	0.000000	-0.000057	0.000000	-0.000002	0.000002	0.000000	0.000000
0.898573	11.845820	25.105649	-0.031715	-0.112251	2.618261	0.000000	-0.006478	0.000000	-0.000001	0.000002	0.000000	0.000000
1.339533	12.025797	24.926134	-0.377981	0.517802	2.631698	0.000000	0.067483	0.000000	-0.000001	0.000002	0.000000	0.000000
1.780493	12.517585	24.199269	-0.741515	1.124295	2.677887	0.000000	0.142212	0.000000	0.000000	0.000002	0.000000	0.000000
2.221453	13.343652	22.958126	-1.138928	1.679634	2.757354	0.000000	0.218561	0.000000	0.000001	0.000002	0.000000	0.000000
2.662413	14.541738	21.259176	-1.588374	2.158550	2.871004	0.000000	0.297400	0.000000	0.000002	0.000002	0.000000	0.000000
3.108373	16.187297	19.154806	-2.114674	2.540388	3.021993	0.000000	0.380115	0.000000	0.000003	0.000002	0.000000	0.000000
3.657433	18.297495	16.791228	-1.705867	1.789792	3.205426	0.000000	0.287077	0.000000	0.000004	0.000002	0.000000	0.000000
4.206493	19.889550	15.177475	-1.176567	1.166678	3.336301	0.000000	0.188948	0.000000	0.000005	0.000002	0.000000	0.000000
4.755553	20.851004	14.198601	-0.564159	0.626664	3.412296	0.000000	0.087467	0.000000	0.000006	0.000002	0.000000	0.000000
5.304613	21.113948	13.784883	0.088098	0.131285	3.432063	0.000000	-0.015565	0.000000	0.000007	0.000001	0.000000	0.000000
5.603185	21.098508	13.691629	0.018778	0.145035	3.430092	0.000000	-0.006599	0.000000	0.000007	0.000001	0.000000	0.000000
5.936519	21.091258	13.603225	0.002973	0.120177	3.427892	0.000000	-0.006599	0.000000	0.000008	0.000001	0.000000	0.000000
6.269852	21.094544	13.531393	-0.012831	0.095319	3.425692	0.000000	-0.006599	0.000000	0.000008	0.000001	0.000000	0.000000
6.604435	21.108437	13.475957	-0.028695	0.070368	3.423484	0.000000	-0.006599	0.000000	0.000009	0.000001	0.000000	0.000000
6.901758	21.129692	13.440706	-0.097996	0.083311	3.421522	0.000000	0.002340	0.000000	0.000009	0.000001	0.000000	0.000000
7.450818	20.877228	13.610194	0.555086	-0.393821	3.394607	0.000000	-0.100234	0.000000	0.000010	0.000001	0.000000	0.000000
7.999878	19.924987	14.315866	1.168960	-0.899004	3.311778	0.000000	-0.201031	0.000000	0.000010	0.000001	0.000000	0.000000
8.548938	18.340230	15.607988	1.700264	-1.468220	3.174504	0.000000	-0.298263	0.000000	0.000011	0.000000	0.000000	0.000000
9.097998	16.234897	17.578592	2.111469	-2.142015	2.985220	0.000000	-0.390204	0.000000	0.000011	0.000000	0.000000	0.000000
9.543958	14.592406	19.334466	1.584670	-1.778633	2.829510	0.000000	-0.308504	0.000000	0.000011	0.000000	0.000000	0.000000
9.984918	13.397869	20.712947	1.134553	-1.335560	2.710717	0.000000	-0.230801	0.000000	0.000011	0.000001	0.000000	0.000000
10.425878	12.576029	21.672282	0.736270	-0.831721	2.625576	0.000000	-0.155728	0.000000	0.000012	0.000001	0.000000	0.000000
10.866838	12.089338	22.168822	0.371626	-0.290039	2.573117	0.000000	-0.082428	0.000000	0.000012	0.000001	0.000000	0.000000
11.309048	11.915427	22.179450	0.053071	0.210396	2.552722	0.000000	-0.016326	0.000000	0.000013	0.000002	0.000000	0.000000
11.606371	11.891308	22.058501	0.028048	0.196397	2.547867	0.000000	-0.016326	0.000000	0.000013	0.000002	0.000000	0.000000
12.086371	11.883772	21.880808	-0.012349	0.173797	2.540030	0.000000	-0.016326	0.000000	0.000014	0.000002	0.000000	0.000000
12.566371	11.915018	21.724811	-0.052746	0.151198	2.532192	0.000000	-0.016326	0.000000	0.000015	0.000002	0.000000	0.000000
13.046371	11.985045	21.590509	-0.093144	0.128598	2.524355	0.000000	-0.016326	0.000000	0.000016	0.000002	0.000000	0.000000
13.526371	12.093854	21.477903	-0.133541	0.105998	2.516517	0.000000	-0.016326	0.000000	0.000016	0.000002	0.000000	0.000000
14.007621	12.241879	21.386784	-0.174044	0.083340	2.508660	0.000000	-0.016326	0.000000	0.000017	0.000002	0.000000	0.000000
14.304943	12.352814	21.341389	-0.168779	0.017015	2.503805	0.000000	-0.022465	0.000000	0.000018	0.000002	0.000000	0.000000
14.745903	12.660137	21.092822	-0.530805	0.544535	2.509527	0.000000	0.048445	0.000000	0.000018	0.000002	0.000000	0.000000
15.186863	13.296185	20.388214	-0.917083	1.047278	2.546609	0.000000	0.119908	0.000000	0.000019	0.000003	0.000000	0.000000
15.627823	14.290018	19.259626	-1.345259	1.502372	2.615474	0.000000	0.192736	0.000000	0.000021	0.000003	0.000000	0.000000
16.068783	15.687040	17.758405	-1.834896	1.889109	2.716906	0.000000	0.267759	0.000000	0.000022	0.000004	0.000000	0.000000
16.514743	17.574741	15.931358	-2.413123	2.190634	2.853754	0.000000	0.346294	0.000000	0.000024	0.000004	0.000000	0.000000
17.063803	19.999348	13.891377	-1.976657	1.546702	3.020164	0.000000	0.258983	0.000000	0.000026	0.000003	0.000000	0.000000
17.612863	21.864691	12.494228	-1.400568	1.012938	3.137302	0.000000	0.167079	0.000000	0.000028	0.000003	0.000000	0.000000
18.161923	23.039011	11.640394	-0.725551	0.551323	3.203090	0.000000	0.072211	0.000000	0.000029	0.000002	0.000000	0.000000
18.710983	23.439360	11.269060	0.000716	0.128978	3.216362	0.000000	-0.023937	0.000000	0.000029	0.000001	0.000000	0.000000
19.009556	23.479311	11.182572	-0.073297	0.131255	3.211723	0.000000	-0.015536	0.000000	0.000030	0.000001	0.000000	0.000000
19.342889	23.532933	11.105176	-0.087570	0.100933	3.206544	0.000000	-0.015536	0.000000	0.000030	0.000001	0.000000	0.000000
19.676223	23.596071	11.047994	-0.101843	0.070611	3.201365	0.000000	-0.015536	0.000000	0.000030	0.000001	0.000000	0.000000
20.010806	23.669307	11.010790	-0.233440	0.094730	3.196187	0.000000	0.000300	0.000000	0.000030	0.000001	0.000000	0.000000
20.308129	23.812060	10.962560	-0.308887	0.096121	3.196276	0.000000	0.008649	0.000000	0.000031	0.000001	0.000000	0.000000
20.857189	23.740544	11.078886	0.438368	-0.309235	3.174812	0.000000	-0.086716	0.000000	0.000031	-0.000000	0.000000	0.000000
21.406249	22.860668	11.649752	1.154658	-0.736617	3.101334	0.000000	-0.180543	0.000000	0.000030	-0.000001	0.000000	0.000000
21.955309	21.234582	12.715820	1.789390	-1.216467	2.977143	0.000000	-0.271168	0.000000	0.000030	-0.000002	0.000000	0.000000
22.504369	18.977145	14.353023	2.297727	-1.782963	2.804444	0.000000	-0.356982	0.000000	0.000028	-0.000003	0.000000	0.000000
22.950329	17.197971	15.823049	1.705891	-1.499449	2.662535	0.000000	-0.279792	0.000000	0.000027	-0.000002	0.000000	0.000000
23.391289	15.922886	16.995178	1.196689	-1.148564	2.555476	0.000000	-0.206243	0.000000	0.000026	-0.000002	0.000000	0.000000
23.832249	15.071161	17.833540	0.742160	-0.745420	2.480301	0.000000	-0.135043	0.000000	0.000026	-0.000001	0.000000	0.000000
24.273209	14.603885	18.299990	0.321539	-0.308360	2.436154	0.000000	-0.065381	0.000000	0.000026	-0.000000	0.000000	0.000000
24.715418	14.499830	18.373061	-0.048930	0.097616	2.422528	0.000000	-0.002403	0.000000	0.000026	0.000000	0.000000	0.000000
25.012741	14.535037	18.319871	-0.069484	0.081279	2.421813	0.000000	-0.002403	0.000000	0.000026	0.000000	0.000000	0.000000
25.346075	14.589041	18.271791	-0.092528	0.062964	2.421012	0.000000	-0.002403	0.000000	0.000026	0.000000	0.000000	0.000000
25.679408	14.658408	18.235920	-0.115572	0.044648	2.420211	0.000000	-0.002403	0.000000	0.000026	0.000000	0.000000	0.000000
26.013991	14.743184	18.212563	-0.019095	-0.121485	2.419382	0.000000	-0.022031	0.000000	0.000026	0.000000	0.000000	0.000000
26.311314	14.760537	18.289729	-0.003081	-0.182892	2.412832	0.000000	-0.027947	0.000000	0.000026	0.000000	0.000000	0.000000
26.752274	14.945091	18.252703	-0.417033	0.266540	2.415614	0.000000	0.040581	0.000000	0.000026	0.000001	0.000000	0.000000
27.193234	15.501707	17.823167	-0.850038	0.703845	2.448688	0.000000	0.109571	0.000000	0.000027	0.000001	0.000000	0.000000
27.634194	16.455816	17.020665	-1.321878	1.109126	2.512429	0.000000	0.179808	0.000000	0.000028	0.000002	0.000000	0.000000
28.075154	17.851009	15.881711	-1.854111	1.463942	2.607563	0.000000	0.252094	0.000000	0.000029	0.000003	0.000000	0.000000
28.521114	19.775262	14.440965	-2.476027	1.753061	2.736776	0.000000	0.327694	0.000000	0.000030	0.000004	0.000000	0.000000
29.070174	22.220985	12.835794	-1.951983	1.187684	2.894042	0.000000	0.244321	0.000000	0.000032	0.000003	0.000000	0.000000
29.619234	24.011663	11.801656	-1.290060	0.706903	3.004272	0.000000	0.156615	0.000000	0.000033	0.000002	0.000000	0.000000
30.168294	25.020811	11.264891	-0.537014	0.276473	3.065512	0.000000	0.066132	0.000000	0.000034	0.000001	0.000000	0.000000
30.717354	25.177148	11.187268	0.253965	-0.134264	3.076677	0.000000	-0.025525	0.000000	0.000034	-0.000001	0.000000	0.000000
31.015927	25.068431	11.258050	0.175921	-0.132025	3.071455	0.000000	-0.017489	0.000000	0.000034	-0.000000	0.000000	0.000000
31.349260	24.955720	11.356108	0.162213	-0.162150	3.065626	0.000000	-0.017489	0.000000	0.000034	-0.000000	0.000000	0.000000
31.682593	24.852148	11.474250	0.148504	-0.192274	3.059796	0.000000	-0.017489	0.000000	0.000033	-0.000000	0.000000	0.000000
32.017177	24.757377	11.613030	0.134744	-0.222512	3.053945	0.000000	-0.017489	0.000000	0.000033	-0.000000	0.000000	0.000000
32.314499	24.680888	11.753335	0.058048	-0.218681	3.048745	0.000000	-0.009525	0.000000	0.000033	-0.000000	0.000000	0.000000
32.863559	24.194245	12.232641	0.823023	-0.659429	3.018642	0.000000	-0.099970	0.000000	0.000033	-0.000001	0.000000	0.000000
33.412619	22.894674	13.218738	1.529864	-1.147146	2.939293	0.000000	-0.188642	0.000000	0.000032	-0.000002	0.000000	0.000000
33.961679	20.873971	14.781864	2.128643	-1.716571	2.812108	0.000000	-0.273968	0.000000	0.000030	-0.000003	0.000000	0.000000
34.510739	18.274867	17.033358	2.577065	-2.408265	2.639340	0.000000	-0.354434	0.000000	0.000028	-0.000004	0.000000	0.000000
34.956699	16.253898	19.047274	1.970896	-2.088791	2.497616	0.000000	-0.281524	0.000000	0.000026	-0.000004	0.000000	0.000000
35.397659	14.746818	20.713305	1.459792	-1.675022	2.388854	0.000000	-0.212249	0.000000	0.000024	-0.000003	0.000000	0.000000
35.838619	13.659490	21.979297	1.015381	-1.185041	2.310077	0.000000	-0.145391	0.000000	0.000023	-0.000002	0.000000	0.000000
36.279579	12.942236	22.787646	0.617361	-0.641141	2.260390	0.000000	-0.080189	0.000000	0.000022	-0.000002	0.000000	0.000000
36.721789	12.561593	23.101887	0.278239	-0.124765	2.239198	0.000000	-0.021390	0.000000	0.000022	-0.000001	0.000000	0.000000
37.019112	12.403722	23.179964	0.252737	-0.137836	2.232839	0.000000	-0.021390	0.000000	0.000021	-0.000001	0.000000	0.000000
37.352445	12.244760	23.276739	0.224147	-0.152489	2.225710	0.000000	-0.021390	0.000000	0.000021	-0.000001	0.000000	0.000000
37.685779	12.104859	23.383283	0.195556	-0.167143	2.218580	0.000000	-0.021390	0.000000	0.000020	-0.000001	0.000000	0.000000
38.020362	11.983601	23.500051	0.166859	-0.181851	2.211424	0.000000	-0.021390	0.000000	0.000020	-0.000001	0.000000	0.000000
38.317684	11.891961	23.612074	0.170515	-0.252815	2.205065	0.000000	-0.026796	0.000000	0.000019	-0.000001	0.000000	0.000000
38.758644	11.893156	23.573487	-0.173234	0.339987	2.207173	0.000000	0.036366	0.000000	0.000019	-0.000001	0.000000	0.000000
39.199604	12.199841	23.016947	-0.524898	0.917320	2.237198	0.000000	0.099943	0.000000	0.000019	-0.000000	0.000000	0.000000
39.640564	12.826027	21.967775	-0.900542	1.452916	2.295482	0.000000	0.164658	0.000000	0.000018	0.000000	0.000000	0.000000
40.081524	13.800324	20.473707	-1.317330	1.922405	2.382689	0.000000	0.231249	0.000000	0.000019	0.000001	0.000000	0.000000
40.527484	15.184823	18.580143	-1.798131	2.305714	2.501283	0.000000	0.300878	0.000000	0.000019	0.000001	0.000000	0.000000
41.076544	16.951470	16.452172	-1.400407	1.592825	2.645958	0.000000	0.225340	0.000000	0.000019	0.000000	0.000000	0.000000
41.625604	18.224133	15.040517	-0.903764	0.993390	2.747999	0.000000	0.145805	0.000000	0.000019	-0.000000	0.000000	0.000000
42.174664	18.912915	14.244630	-0.343285	0.464711	2.805595	0.000000	0.063684	0.000000	0.000019	-0.000001	0.000000	0.000000
42.723724	18.969165	14.007822	0.241443	-0.030867	2.817725	0.000000	-0.019567	0.000000	0.000018	-0.000001	0.000000	0.000000
43.022297	18.859452	14.010766	0.175568	-0.015588	2.814081	0.000000	-0.012206	0.000000	0.000018	-0.000001	0.000000	0.000000
43.502297	18.703500	14.042179	0.149332	-0.049856	2.808223	0.000000	-0.012206	0.000000	0.000017	-0.000001	0.000000	0.000000
43.982297	18.572734	14.106489	0.123096	-0.084123	2.802365	0.000000	-0.012206	0.000000	0.000017	-0.000001	0.000000	0.000000
44.462297	18.467155	14.203696	0.096860	-0.118391	2.796507	0.000000	-0.012206	0.000000	0.000016	-0.000001	0.000000	0.000000
44.942297	18.386762	14.333800	0.070625	-0.152659	2.790649	0.000000	-0.012206	0.000000	0.000015	-0.000001	0.000000	0.000000
45.423547	18.331672	14.497088	-0.046505	-0.115188	2.784792	0.000000	0.001592	0.000000	0.000015	-0.000001	0.000000	0.000000
45.720870	18.364159	14.571763	-0.110736	-0.097901	2.785266	0.000000	0.008868	0.000000	0.000014	-0.000001	0.000000	0.000000
46.269930	18.176554	14.961031	0.450396	-0.615255	2.767569	0.000000	-0.073241	0.000000	0.000013	-0.000002	0.000000	0.000000
46.818990	17.386662	15.939003	0.979713	-1.176433	2.705080	0.000000	-0.154050	0.000000	0.000012	-0.000002	0.000000	0.000000
47.368050	16.050277	17.575337	1.439828	-1.821405	2.598907	0.000000	-0.232128	0.000000	0.000011	-0.000003	0.000000	0.000000
47.917110	14.261794	19.986586	1.798242	-2.596112	2.450934	0.000000	-0.306088	0.000000	0.000009	-0.000003	0.000000	0.000000
48.363070	12.870105	22.130303	1.333473	-2.190650	2.329722	0.000000	-0.237799	0.000000	0.000008	-0.000003	0.000000	0.000000
48.804030	11.874283	23.846632	0.933398	-1.686792	2.239322	0.000000	-0.172615	0.000000	0.000007	-0.000002	0.000000	0.000000
49.244990	11.211229	25.082929	0.575966	-1.106187	2.177204	0.000000	-0.109397	0.000000	0.000006	-0.000002	0.000000	0.000000
49.685950	10.850650	25.782943	0.244850	-0.475251	2.142661	0.000000	-0.047425	0.000000	0.000005	-0.000002	0.000000	0.000000
50.128160	10.776193	25.914541	-0.048772	0.113712	2.135312	0.000000	0.008771	0.000000	0.000004	-0.000002	0.000000	0.000000
50.425482	10.813418	25.850378	-0.076428	0.102091	2.137921	0.000000	0.008771	0.000000	0.000004	-0.000002	0.000000	0.000000
50.758816	10.874705	25.786661	-0.107434	0.089062	2.140845	0.000000	0.008771	0.000000	0.000003	-0.000002	0.000000	0.000000
51.092149	10.956663	25.731629	-0.138440	0.076033	2.143769	0.000000	0.008771	0.000000	0.000002	-0.000002	0.000000	0.000000
51.426732	11.059491	25.685647	-0.079841	-0.145420	2.146682	0.000000	-0.008645	0.000000	0.000002	-0.000002	0.000000	0.000000
51.724055	11.115012	25.775635	-0.079639	-0.220450	2.144113	0.000000	-0.013903	0.000000	0.000001	-0.000002	0.000000	0.000000
52.165015	11.330406	25.683264	-0.410680	0.429129	2.151571	0.000000	0.047758	0.000000	0.000000	-0.000002	0.000000	0.000000
52.605975	11.844890	25.024471	-0.760484	1.059183	2.186313	0.000000	0.109962	0.000000	-0.000001	-0.000002	0.000000	0.000000
53.046935	12.681970	23.829231	-1.145032	1.641045	2.248734	0.000000	0.173418	0.000000	-0.000002	-0.000002	0.000000	0.000000
53.487895	13.879890	22.151925	-1.581893	2.148240	2.339545	0.000000	0.238850	0.000000	-0.000003	-0.000002	0.000000	0.000000
53.933855	15.513918	20.043795	-2.095250	2.559031	2.461286	0.000000	0.307401	0.000000	-0.000004	-0.000002	0.000000	0.000000
54.482915	17.617746	17.671538	-1.713759	1.787050	2.609888	0.000000	0.233095	0.000000	-0.000005	-0.000002	0.000000	0.000000
55.031975	19.233296	16.072557	-1.211217	1.142356	2.716496	0.000000	0.154655	0.000000	-0.000006	-0.000002	0.000000	0.000000
55.581035	20.246455	15.132959	-0.623121	0.579030	2.779217	0.000000	0.073472	0.000000	-0.000007	-0.000002	0.000000	0.000000
56.130095	20.585657	14.785818	0.008989	0.056947	2.796939	0.000000	-0.009015	0.000000	-0.000008	-0.000001	0.000000	0.000000
56.428668	20.616749	14.734826	-0.059334	0.075205	2.796430	0.000000	-0.001706	0.000000	-0.000008	-0.000001	0.000000	0.000000
56.762001	20.661713	14.692273	-0.075559	0.052455	2.795861	0.000000	-0.001706	0.000000	-0.000009	-0.000001	0.000000	0.000000
57.095334	20.717494	14.664886	-0.091784	0.029704	2.795293	0.000000	-0.001706	0.000000	-0.000009	-0.000001	0.000000	0.000000
57.429918	20.784361	14.652650	-0.108069	0.006869	2.794723	0.000000	-0.001706	0.000000	-0.000010	-0.000001	0.000000	0.000000
57.727240	20.852927	14.654598	-0.177031	0.024869	2.794216	0.000000	0.005595	0.000000	-0.000010	-0.000002	0.000000	0.000000
58.276300	20.691617	14.908625	0.469084	-0.490257	2.774647	0.000000	-0.076774	0.000000	-0.000011	-0.000001	0.000000	0.000000
58.825360	19.834872	15.744063	1.082064	-1.040304	2.710160	0.000000	-0.157780	0.000000	-0.000011	-0.000001	0.000000	0.000000
59.374420	18.343208	17.220420	1.618614	-1.664449	2.601900	0.000000	-0.235988	0.000000	-0.000012	-0.000000	0.000000	0.000000
59.923480	16.321988	19.442852	2.040832	-2.407149	2.451786	0.000000	-0.310011	0.000000	-0.000012	-0.000000	0.000000	0.000000
60.369440	14.740049	21.418116	1.518995	-2.003394	2.328825	0.000000	-0.241722	0.000000	-0.000012	-0.000000	0.000000	0.000000
60.810400	13.602390	22.973240	1.070754	-1.509865	2.236685	0.000000	-0.176584	0.000000	-0.000012	-0.000001	0.000000	0.000000
61.251360	12.837058	24.061040	0.671433	-0.947638	2.172798	0.000000	-0.113457	0.000000	-0.000013	-0.000001	0.000000	0.000000
61.692320	12.409090	24.632021	0.302788	-0.342294	2.136437	0.000000	-0.051622	0.000000	-0.000013	-0.000001	0.000000	0.000000
62.134530	12.298986	24.659658	-0.021961	0.218090	2.127192	0.000000	0.004408	0.000000	-0.000014	-0.000002	0.000000	0.000000
62.431853	12.319236	24.533727	-0.046148	0.205459	2.128503	0.000000	0.004408	0.000000	-0.000014	-0.000002	0.000000	0.000000
62.765186	12.359040	24.401474	-0.073263	0.191299	2.129973	0.000000	0.004408	0.000000	-0.000015	-0.000002	0.000000	0.000000
63.098520	12.416920	24.278662	-0.100379	0.177139	2.131443	0.000000	0.004408	0.000000	-0.000015	-0.000002	0.000000	0.000000
63.433103	12.493197	24.164882	-0.127596	0.162925	2.132918	0.000000	0.004408	0.000000	-0.000016	-0.000002	0.000000	0.000000
63.730426	12.576262	24.071754	-0.120937	0.091254	2.134229	0.000000	-0.000827	0.000000	-0.000016	-0.000002	0.000000	0.000000
64.171386	12.843119	23.726190	-0.486533	0.689428	2.147407	0.000000	0.060652	0.000000	-0.000017	-0.000002	0.000000	0.000000
64.612346	13.440949	22.864953	-0.874357	1.256234	2.187822	0.000000	0.122822	0.000000	-0.000018	-0.000002	0.000000	0.000000
65.053306	14.397064	21.527231	-1.302128	1.765882	2.255934	0.000000	0.186391	0.000000	-0.000019	-0.000003	0.000000	0.000000
65.494266	15.755146	19.773887	-1.789389	2.195184	2.352518	0.000000	0.252083	0.000000	-0.000021	-0.000003	0.000000	0.000000
65.940226	17.600404	17.659896	-2.363093	2.525357	2.480248	0.000000	0.321048	0.000000	-0.000022	-0.000004	0.000000	0.000000
66.489286	19.966026	15.295083	-1.919900	1.807090	2.636153	0.000000	0.246009	0.000000	-0.000024	-0.000003	0.000000	0.000000
67.038346	21.767169	13.644127	-1.341095	1.217537	2.749597	0.000000	0.166607	0.000000	-0.000026	-0.000002	0.000000	0.000000
67.587406	22.876609	12.589435	-0.667562	0.714707	2.818568	0.000000	0.084250	0.000000	-0.000027	-0.000002	0.000000	0.000000
68.136466	23.215981	12.055884	0.053124	0.262783	2.841841	0.000000	0.000399	0.000000	-0.000028	-0.000001	0.000000	0.000000
68.435038	23.224329	11.888184	-0.020411	0.267380	2.844178	0.000000	0.007826	0.000000	-0.000028	-0.000001	0.000000	0.000000
68.768372	23.242722	11.719946	-0.034769	0.237336	2.846787	0.000000	0.007826	0.000000	-0.000028	-0.000001	0.000000	0.000000
69.101705	23.270688	11.571736	-0.049128	0.207293	2.849396	0.000000	0.007826	0.000000	-0.000028	-0.000001	0.000000	0.000000
69.436288	23.308385	11.443112	-0.063541	0.177137	2.852014	0.000000	0.007826	0.000000	-0.000029	-0.000001	0.000000	0.000000
69.733611	23.349977	11.345746	-0.137372	0.179990	2.854341	0.000000	0.015285	0.000000	-0.000029	-0.000001	0.000000	0.000000
70.282671	23.099792	11.375383	0.590335	-0.234286	2.839543	0.000000	-0.069109	0.000000	-0.000029	0.000000	0.000000	0.000000
