#ParticleID	Turn	x[m]	xp	y[m]	yp	z[m]	dE[GeV]# s	beta_x	beta_y	alpha_x	alpha_y	D_x	D_y	D_px	D_py	orbit_x	orbit_px	orbit_y	orbit_py
0.300000	11.834335	24.939878	-0.013702	-0.027786	2.618346	0.000000	-0.000076	0.000000	-0.000001	0.000000	0.000000	0.000000
0.601250	11.850260	24.960261	-0.039162	-0.039875	2.618323	0.000000	-0.000076	0.000000	-0.000001	0.000000	0.000000	0.000000
0.898573	11.881019	24.987520	-0.035154	-0.113083	2.618300	0.000000	-0.006497	0.000000	-0.000001	0.000000	0.000000	0.000000
1.339533	12.064409	24.810115	-0.382311	0.513867	2.631729	0.000000	0.067464	0.000000	-0.000001	0.000000	0.000000	0.000000
1.780493	12.560479	24.088029	-0.746934	1.117435	2.677910	0.000000	0.142194	0.000000	-0.000001	0.000000	0.000000	0.000000
2.221453	13.391893	22.854114	-1.145683	1.670162	2.757370	0.000000	0.218544	0.000000	-0.000001	0.000000	0.000000	0.000000
2.662413	14.596637	21.164514	-1.596775	2.146897	2.871014	0.000000	0.297382	0.000000	-0.000001	0.000000	0.000000	0.000000
3.108373	16.250570	19.071322	-2.125121	2.527080	3.021995	0.000000	0.380098	0.000000	-0.000001	0.000000	0.000000	0.000000
3.657433	18.371409	16.720490	-1.714687	1.779751	3.205420	0.000000	0.287060	0.000000	-0.000001	0.000000	0.000000	0.000000
4.206493	19.971963	15.116305	-1.183136	1.159190	3.336287	0.000000	0.188931	0.000000	-0.000001	0.000000	0.000000	0.000000
4.755553	20.939175	14.144503	-0.568015	0.621195	3.412273	0.000000	0.087451	0.000000	-0.000001	0.000000	0.000000	0.000000
5.304613	21.204727	13.735866	0.087229	0.127446	3.432033	0.000000	-0.015581	0.000000	-0.000001	0.000000	0.000000	0.000000
5.603185	21.189932	13.644994	0.017730	0.141019	3.430058	0.000000	-0.006613	0.000000	-0.000001	0.000000	0.000000	0.000000
5.936519	21.183357	13.559286	0.001994	0.116104	3.427854	0.000000	-0.006613	0.000000	-0.000001	0.000000	0.000000	0.000000
6.269852	21.187273	13.490188	-0.013742	0.091190	3.425649	0.000000	-0.006613	0.000000	-0.000000	0.000000	0.000000	0.000000
6.604435	21.201753	13.437534	-0.029536	0.066181	3.423436	0.000000	-0.006613	0.000000	-0.000000	0.000000	0.000000	0.000000
6.901758	21.223490	13.404788	-0.099025	0.078983	3.421470	0.000000	0.002326	0.000000	-0.000000	0.000000	0.000000	0.000000
7.450818	20.970426	13.578490	0.557201	-0.397214	3.394548	0.000000	-0.100247	0.000000	-0.000000	0.000000	0.000000	0.000000
7.999878	20.014195	14.287489	1.174069	-0.901703	3.311713	0.000000	-0.201042	0.000000	-0.000000	0.000000	0.000000	0.000000
8.548938	18.422338	15.582283	1.708008	-1.470419	3.174435	0.000000	-0.298271	0.000000	-0.000000	0.000000	0.000000	0.000000
9.097998	16.307298	17.555099	2.121301	-2.143869	2.985148	0.000000	-0.390209	0.000000	-0.000000	0.000000	0.000000	0.000000
9.543958	14.657022	19.313058	1.592360	-1.781440	2.829434	0.000000	-0.308512	0.000000	0.000000	0.000000	0.000000	0.000000
9.984918	13.456508	20.694385	1.140469	-1.339184	2.710638	0.000000	-0.230811	0.000000	0.000000	0.000000	0.000000	0.000000
10.425878	12.630131	21.657217	0.740683	-0.835997	2.625492	0.000000	-0.155740	0.000000	0.000000	0.000000	0.000000	0.000000
10.866838	12.140134	22.157746	0.374737	-0.294773	2.573027	0.000000	-0.082442	0.000000	0.000000	0.000000	0.000000	0.000000
11.309048	11.963994	22.172684	0.055146	0.205430	2.552626	0.000000	-0.016343	0.000000	0.000000	0.000000	0.000000	0.000000
11.606371	11.938613	22.054682	0.030219	0.191454	2.547767	0.000000	-0.016343	0.000000	0.000000	0.000000	0.000000	0.000000
12.086371	11.928919	21.881715	-0.010023	0.168893	2.539922	0.000000	-0.016343	0.000000	0.000001	0.000000	0.000000	0.000000
12.566371	11.957858	21.730408	-0.050266	0.146331	2.532077	0.000000	-0.016343	0.000000	0.000001	0.000000	0.000000	0.000000
13.046371	12.025429	21.600760	-0.090508	0.123769	2.524232	0.000000	-0.016343	0.000000	0.000001	0.000000	0.000000	0.000000
13.526371	12.131633	21.492772	-0.130751	0.101207	2.516387	0.000000	-0.016343	0.000000	0.000001	0.000000	0.000000	0.000000
14.007621	12.276898	21.406246	-0.171098	0.078586	2.508521	0.000000	-0.016343	0.000000	0.000001	0.000000	0.000000	0.000000
14.304943	12.386052	21.363670	-0.165651	0.012222	2.503662	0.000000	-0.022483	0.000000	0.000001	0.000000	0.000000	0.000000
14.745903	12.690914	21.119034	-0.528333	0.540447	2.509376	0.000000	0.048424	0.000000	0.000001	0.000000	0.000000	0.000000
15.186863	13.325028	20.417651	-0.915153	1.044083	2.546449	0.000000	0.119882	0.000000	0.000001	0.000000	0.000000	0.000000
15.627823	14.317364	19.291432	-1.343784	1.500214	2.615302	0.000000	0.192706	0.000000	0.000001	0.000000	0.000000	0.000000
16.068783	15.713260	17.791621	-1.833808	1.888086	2.716721	0.000000	0.267724	0.000000	0.000002	0.000000	0.000000	0.000000
16.514743	17.600144	15.964956	-2.412372	2.190802	2.853554	0.000000	0.346254	0.000000	0.000002	0.000000	0.000000	0.000000
17.063803	20.023256	13.925170	-1.974705	1.546180	3.019946	0.000000	0.258950	0.000000	0.000002	0.000000	0.000000	0.000000
17.612863	21.885854	12.528988	-1.397554	1.011688	3.137069	0.000000	0.167053	0.000000	0.000002	0.000000	0.000000	0.000000
18.161923	23.056373	11.676964	-0.721686	0.549258	3.202846	0.000000	0.072193	0.000000	0.000002	0.000000	0.000000	0.000000
18.710983	23.452133	11.308411	0.005157	0.125949	3.216111	0.000000	-0.023947	0.000000	0.000002	0.000000	0.000000	0.000000
19.009556	23.489457	11.223631	-0.068889	0.128454	3.211470	0.000000	-0.015544	0.000000	0.000002	0.000000	0.000000	0.000000
19.342889	23.540136	11.148058	-0.083147	0.098265	3.206288	0.000000	-0.015544	0.000000	0.000002	0.000000	0.000000	0.000000
19.676223	23.600320	11.092611	-0.097405	0.068076	3.201107	0.000000	-0.015544	0.000000	0.000002	0.000000	0.000000	0.000000
20.010806	23.670582	11.057059	-0.228994	0.092557	3.195926	0.000000	0.000290	0.000000	0.000002	0.000000	0.000000	0.000000
20.308129	23.810682	11.010084	-0.304425	0.094203	3.196012	0.000000	0.008641	0.000000	0.000002	0.000000	0.000000	0.000000
20.857189	23.734316	11.129256	0.442688	-0.312532	3.174547	0.000000	-0.086716	0.000000	0.000003	0.000000	0.000000	0.000000
21.406249	22.849914	11.704602	1.158533	-0.741528	3.101070	0.000000	-0.180534	0.000000	0.000003	-0.000000	0.000000	0.000000
21.955309	21.219947	12.777103	1.792544	-1.223342	2.976887	0.000000	-0.271150	0.000000	0.000002	-0.000000	0.000000	0.000000
22.504369	18.959548	14.423151	2.299939	-1.792291	2.804198	0.000000	-0.356957	0.000000	0.000002	-0.000000	0.000000	0.000000
22.950329	17.178351	15.900802	1.708236	-1.507147	2.662298	0.000000	-0.279773	0.000000	0.000002	-0.000000	0.000000	0.000000
23.391289	15.901100	17.078870	1.199276	-1.154286	2.555246	0.000000	-0.206230	0.000000	0.000002	-0.000000	0.000000	0.000000
23.832249	15.046945	17.921307	0.745107	-0.748906	2.480075	0.000000	-0.135036	0.000000	0.000002	0.000000	0.000000	0.000000
24.273209	14.576863	18.389783	0.324980	-0.309452	2.435929	0.000000	-0.065380	0.000000	0.000002	0.000000	0.000000	0.000000
24.715418	14.469489	18.462736	-0.044904	0.098738	2.422303	0.000000	-0.002409	0.000000	0.000002	0.000000	0.000000	0.000000
25.012741	14.502313	18.408857	-0.065494	0.082477	2.421586	0.000000	-0.002409	0.000000	0.000002	0.000000	0.000000	0.000000
25.346075	14.553670	18.359949	-0.088577	0.064247	2.420783	0.000000	-0.002409	0.000000	0.000002	0.000000	0.000000	0.000000
25.679408	14.620416	18.323194	-0.111661	0.046017	2.419981	0.000000	-0.002409	0.000000	0.000002	0.000000	0.000000	0.000000
26.013991	14.702590	18.298895	-0.015554	-0.120732	2.419150	0.000000	-0.022034	0.000000	0.000003	0.000000	0.000000	0.000000
26.311314	14.717853	18.375589	0.000311	-0.182278	2.412599	0.000000	-0.027951	0.000000	0.000003	0.000000	0.000000	0.000000
26.752274	14.898943	18.336995	-0.412540	0.269467	2.415378	0.000000	0.040571	0.000000	0.000003	0.000000	0.000000	0.000000
27.193234	15.451038	17.903903	-0.844239	0.708952	2.448446	0.000000	0.109554	0.000000	0.000003	0.000000	0.000000	0.000000
27.634194	16.399362	17.096018	-1.314509	1.116180	2.512179	0.000000	0.179785	0.000000	0.000003	0.000000	0.000000	0.000000
28.075154	17.787241	15.950099	-1.844835	1.472623	2.607303	0.000000	0.252064	0.000000	0.000003	0.000000	0.000000	0.000000
28.521114	19.702204	14.501026	-2.464399	1.762977	2.736503	0.000000	0.327657	0.000000	0.000003	0.000000	0.000000	0.000000
29.070174	22.136124	12.886282	-1.942245	1.195307	2.893752	0.000000	0.244294	0.000000	0.000003	0.000000	0.000000	0.000000
29.619234	23.917467	11.844777	-1.282901	0.712776	3.003971	0.000000	0.156598	0.000000	0.000003	0.000000	0.000000	0.000000
30.168294	24.920409	11.302328	-0.532939	0.281015	3.065205	0.000000	0.066124	0.000000	0.000004	0.000000	0.000000	0.000000
30.717354	25.074106	11.220296	0.254668	-0.130730	3.076368	0.000000	-0.025523	0.000000	0.000004	0.000000	0.000000	0.000000
31.015927	24.964836	11.288882	0.176822	-0.128298	3.071147	0.000000	-0.017485	0.000000	0.000004	0.000000	0.000000	0.000000
31.349260	24.851544	11.384419	0.163052	-0.158312	3.065319	0.000000	-0.017485	0.000000	0.000004	0.000000	0.000000	0.000000
31.682593	24.747432	11.499965	0.149283	-0.188325	3.059491	0.000000	-0.017485	0.000000	0.000004	0.000000	0.000000	0.000000
32.017177	24.652162	11.636066	0.135462	-0.218452	3.053640	0.000000	-0.017485	0.000000	0.000004	0.000000	0.000000	0.000000
32.314499	24.575262	11.773927	0.058971	-0.214461	3.048442	0.000000	-0.009520	0.000000	0.000004	0.000000	0.000000	0.000000
32.863559	24.089538	12.248815	0.820439	-0.655556	3.018343	0.000000	-0.099955	0.000000	0.000004	-0.000000	0.000000	0.000000
33.412619	22.794660	13.230725	1.523955	-1.143346	2.939004	0.000000	-0.188618	0.000000	0.000004	-0.000000	0.000000	0.000000
33.961679	20.782091	14.789594	2.119827	-1.712574	2.811833	0.000000	-0.273934	0.000000	0.000003	-0.000000	0.000000	0.000000
34.510739	18.193990	17.036459	2.565964	-2.403784	2.639085	0.000000	-0.354392	0.000000	0.000003	-0.000000	0.000000	0.000000
34.956699	16.181807	19.046108	1.962229	-2.083743	2.497376	0.000000	-0.281489	0.000000	0.000003	-0.000000	0.000000	0.000000
35.397659	14.681456	20.707523	1.453143	-1.669642	2.388627	0.000000	-0.212219	0.000000	0.000003	-0.000000	0.000000	0.000000
35.838619	13.599218	21.968713	1.010446	-1.179574	2.309861	0.000000	-0.145367	0.000000	0.000003	-0.000000	0.000000	0.000000
36.279579	12.885647	22.772294	0.613914	-0.635837	2.260182	0.000000	-0.080170	0.000000	0.000003	-0.000000	0.000000	0.000000
36.721789	12.507453	23.082005	0.275995	-0.119826	2.238997	0.000000	-0.021377	0.000000	0.000003	-0.000000	0.000000	0.000000
37.019112	12.350940	23.157144	0.250413	-0.132892	2.232641	0.000000	-0.021377	0.000000	0.000003	-0.000000	0.000000	0.000000
37.352445	12.193558	23.250621	0.221732	-0.147541	2.225515	0.000000	-0.021377	0.000000	0.000003	-0.000000	0.000000	0.000000
37.685779	12.055298	23.353864	0.193051	-0.162189	2.218390	0.000000	-0.021377	0.000000	0.000003	-0.000000	0.000000	0.000000
38.020362	11.935746	23.467315	0.164263	-0.176893	2.211237	0.000000	-0.021377	0.000000	0.000003	-0.000000	0.000000	0.000000
38.317684	11.845675	23.576389	0.167729	-0.247774	2.204881	0.000000	-0.026784	0.000000	0.000003	-0.000000	0.000000	0.000000
38.758644	11.848867	23.533789	-0.174995	0.344014	2.206994	0.000000	0.036374	0.000000	0.000002	-0.000000	0.000000	0.000000
39.199604	12.156684	22.974214	-0.525714	0.920149	2.237021	0.000000	0.099946	0.000000	0.000003	0.000000	0.000000	0.000000
39.640564	12.783189	21.923125	-0.900451	1.454418	2.295305	0.000000	0.164656	0.000000	0.000003	0.000000	0.000000	0.000000
40.081524	13.757006	20.428346	-1.316328	1.922512	2.382509	0.000000	0.231242	0.000000	0.000003	0.000000	0.000000	0.000000
40.527484	15.140184	18.535320	-1.796166	2.304411	2.501100	0.000000	0.300867	0.000000	0.000003	0.000000	0.000000	0.000000
41.076544	16.905593	16.408149	-1.400131	1.592661	2.645771	0.000000	0.225335	0.000000	0.000003	0.000000	0.000000	0.000000
41.625604	18.178895	14.996058	-0.905198	0.994353	2.747810	0.000000	0.145806	0.000000	0.000003	0.000000	0.000000	0.000000
42.174664	18.870148	14.198466	-0.346326	0.466871	2.805408	0.000000	0.063691	0.000000	0.000003	-0.000000	0.000000	0.000000
42.723724	18.930527	13.958563	0.237009	-0.027357	2.817543	0.000000	-0.019554	0.000000	0.000003	-0.000000	0.000000	0.000000
43.022297	18.823409	13.959507	0.171221	-0.012278	2.813903	0.000000	-0.012192	0.000000	0.000003	-0.000000	0.000000	0.000000
43.502297	18.671635	13.987802	0.144973	-0.046669	2.808051	0.000000	-0.012192	0.000000	0.000003	-0.000000	0.000000	0.000000
43.982297	18.545060	14.049111	0.118726	-0.081059	2.802198	0.000000	-0.012192	0.000000	0.000003	-0.000000	0.000000	0.000000
44.462297	18.443682	14.143435	0.092478	-0.115449	2.796346	0.000000	-0.012192	0.000000	0.000003	-0.000000	0.000000	0.000000
44.942297	18.367503	14.270774	0.066230	-0.149840	2.790494	0.000000	-0.012192	0.000000	0.000003	-0.000000	0.000000	0.000000
45.423547	18.316648	14.431409	-0.050837	-0.112817	2.784644	0.000000	0.001605	0.000000	0.000003	-0.000000	0.000000	0.000000
45.720870	18.351716	14.504699	-0.115060	-0.095785	2.785121	0.000000	0.008881	0.000000	0.000003	-0.000000	0.000000	0.000000
46.269930	18.169051	14.890510	0.445777	-0.611038	2.767431	0.000000	-0.073223	0.000000	0.000002	-0.000000	0.000000	0.000000
46.818990	17.384244	15.862567	0.975126	-1.169814	2.704952	0.000000	-0.154028	0.000000	0.000002	-0.000000	0.000000	0.000000
47.368050	16.052730	17.490107	1.435598	-1.811914	2.598792	0.000000	-0.232102	0.000000	0.000002	-0.000000	0.000000	0.000000
47.917110	14.268560	19.889058	1.794666	-2.583072	2.450833	0.000000	-0.306058	0.000000	0.000002	-0.000000	0.000000	0.000000
48.363070	12.879956	22.022062	1.330105	-2.179771	2.329633	0.000000	-0.237772	0.000000	0.000002	-0.000000	0.000000	0.000000
48.804030	11.887072	23.729932	0.930079	-1.678561	2.239242	0.000000	-0.172590	0.000000	0.000002	-0.000000	0.000000	0.000000
49.244990	11.226978	24.960279	0.572546	-1.100978	2.177134	0.000000	-0.109374	0.000000	0.000002	-0.000000	0.000000	0.000000
49.685950	10.869517	25.657125	0.241172	-0.473301	2.142601	0.000000	-0.047404	0.000000	0.000001	-0.000000	0.000000	0.000000
50.128160	10.798489	25.788482	-0.052821	0.112620	2.135260	0.000000	0.008790	0.000000	0.000001	-0.000000	0.000000	0.000000
50.425482	10.838108	25.724985	-0.080431	0.100945	2.137873	0.000000	0.008790	0.000000	0.000001	-0.000000	0.000000	0.000000
50.758816	10.902047	25.662051	-0.111386	0.087855	2.140804	0.000000	0.008790	0.000000	0.000001	-0.000000	0.000000	0.000000
51.092149	10.986622	25.607844	-0.142340	0.074766	2.143734	0.000000	0.008790	0.000000	0.000001	-0.000000	0.000000	0.000000
51.426732	11.092043	25.562728	-0.083425	-0.145750	2.146653	0.000000	-0.008625	0.000000	0.000001	-0.000000	0.000000	0.000000
51.724055	11.149676	25.652930	-0.083075	-0.220537	2.144089	0.000000	-0.013882	0.000000	0.000001	-0.000000	0.000000	0.000000
52.165015	11.368474	25.562069	-0.414993	0.425805	2.151555	0.000000	0.047777	0.000000	0.000001	-0.000000	0.000000	0.000000
52.605975	11.887220	24.907584	-0.765871	1.052773	2.186305	0.000000	0.109981	0.000000	0.000001	-0.000000	0.000000	0.000000
53.046935	12.729613	23.719255	-1.151739	1.631841	2.248733	0.000000	0.173438	0.000000	0.000001	-0.000000	0.000000	0.000000
53.487895	13.934141	22.051148	-1.590227	2.136661	2.339553	0.000000	0.238869	0.000000	0.000001	-0.000000	0.000000	0.000000
53.933855	15.576475	19.954219	-2.105609	2.545598	2.461301	0.000000	0.307421	0.000000	0.000001	-0.000000	0.000000	0.000000
54.482915	17.690858	17.594764	-1.722510	1.777031	2.609913	0.000000	0.233114	0.000000	0.000001	-0.000000	0.000000	0.000000
55.031975	19.314847	16.005247	-1.217743	1.135037	2.716529	0.000000	0.154673	0.000000	0.000001	-0.000000	0.000000	0.000000
55.581035	20.333731	15.072450	-0.626960	0.573889	2.779259	0.000000	0.073488	0.000000	0.000001	-0.000000	0.000000	0.000000
56.130095	20.675541	14.729932	0.008108	0.053619	2.796989	0.000000	-0.009000	0.000000	0.000001	-0.000000	0.000000	0.000000
56.428668	20.707279	14.681035	-0.060384	0.071663	2.796484	0.000000	-0.001692	0.000000	0.000000	-0.000000	0.000000	0.000000
56.762001	20.752920	14.640867	-0.076540	0.048842	2.795920	0.000000	-0.001692	0.000000	0.000000	-0.000000	0.000000	0.000000
57.095334	20.809333	14.615913	-0.092697	0.026020	2.795357	0.000000	-0.001692	0.000000	0.000000	-0.000000	0.000000	0.000000
57.429918	20.876788	14.606166	-0.108913	0.003113	2.794791	0.000000	-0.001692	0.000000	0.000000	-0.000000	0.000000	0.000000
57.727240	20.945837	14.610367	-0.178051	0.020931	2.794288	0.000000	0.005609	0.000000	0.000000	-0.000000	0.000000	0.000000
58.276300	20.783934	14.868042	0.471180	-0.493001	2.774725	0.000000	-0.076762	0.000000	0.000000	-0.000000	0.000000	0.000000
58.825360	19.923234	15.705930	1.087129	-1.042049	2.710244	0.000000	-0.157771	0.000000	0.000000	-0.000000	0.000000	0.000000
59.374420	18.424533	17.183715	1.626289	-1.665319	2.601988	0.000000	-0.235982	0.000000	-0.000000	-0.000000	0.000000	0.000000
59.923480	16.393692	19.406654	2.050576	-2.407206	2.451877	0.000000	-0.310007	0.000000	-0.000000	-0.000000	0.000000	0.000000
60.369440	14.804036	21.382519	1.526617	-2.004681	2.328918	0.000000	-0.241716	0.000000	-0.000000	-0.000000	0.000000	0.000000
60.810400	13.660451	22.939296	1.076621	-1.512313	2.236781	0.000000	-0.176576	0.000000	-0.000000	-0.000000	0.000000	0.000000
61.251360	12.890618	24.029728	0.675812	-0.951135	2.172898	0.000000	-0.113446	0.000000	-0.000000	-0.000000	0.000000	0.000000
61.692320	12.459367	24.604199	0.305880	-0.346682	2.136541	0.000000	-0.051608	0.000000	-0.000000	-0.000000	0.000000	0.000000
62.134530	12.347045	24.636041	-0.019901	0.213075	2.127303	0.000000	0.004424	0.000000	-0.000001	-0.000000	0.000000	0.000000
62.431853	12.366041	24.513088	-0.043991	0.200459	2.128618	0.000000	0.004424	0.000000	-0.000001	-0.000000	0.000000	0.000000
62.765186	12.404371	24.384164	-0.070999	0.186314	2.130093	0.000000	0.004424	0.000000	-0.000001	-0.000000	0.000000	0.000000
63.098520	12.460706	24.264669	-0.098006	0.172169	2.131568	0.000000	0.004424	0.000000	-0.000001	-0.000000	0.000000	0.000000
63.433103	12.535359	24.154209	-0.125115	0.157972	2.133049	0.000000	0.004424	0.000000	-0.000001	-0.000000	0.000000	0.000000
63.730426	12.616921	24.064024	-0.118265	0.086342	2.134364	0.000000	-0.000810	0.000000	-0.000001	-0.000000	0.000000	0.000000
64.171386	12.881808	23.722841	-0.484719	0.684440	2.147550	0.000000	0.060673	0.000000	-0.000001	-0.000000	0.000000	0.000000
64.612346	13.478384	22.865954	-0.873318	1.251396	2.187974	0.000000	0.122847	0.000000	-0.000001	-0.000000	0.000000	0.000000
65.053306	14.433907	21.532351	-1.301817	1.761414	2.256097	0.000000	0.186420	0.000000	-0.000001	-0.000000	0.000000	0.000000
65.494266	15.792031	19.782708	-1.789792	2.191290	2.352693	0.000000	0.252116	0.000000	-0.000001	-0.000000	0.000000	0.000000
65.940226	17.637977	17.671864	-2.364233	2.522222	2.480437	0.000000	0.321085	0.000000	-0.000001	-0.000000	0.000000	0.000000
66.489286	20.004027	15.310390	-1.919531	1.804106	2.636360	0.000000	0.246041	0.000000	-0.000002	-0.000000	0.000000	0.000000
67.038346	21.803944	13.662723	-1.339244	1.214494	2.749818	0.000000	0.166632	0.000000	-0.000002	-0.000000	0.000000	0.000000
67.587406	22.910593	12.611504	-0.664359	0.711387	2.818799	0.000000	0.084267	0.000000	-0.000002	-0.000000	0.000000	0.000000
68.136466	23.245805	12.081857	0.057453	0.258951	2.842079	0.000000	0.000408	0.000000	-0.000002	-0.000000	0.000000	0.000000
68.435038	23.251602	11.916376	-0.016129	0.263721	2.844418	0.000000	0.007834	0.000000	-0.000002	-0.000000	0.000000	0.000000
68.768372	23.267134	11.750535	-0.030469	0.233802	2.847030	0.000000	0.007834	0.000000	-0.000002	-0.000000	0.000000	0.000000
69.101705	23.292226	11.604640	-0.044808	0.203884	2.849641	0.000000	0.007834	0.000000	-0.000002	-0.000000	0.000000	0.000000
69.436288	23.327027	11.478255	-0.059202	0.173854	2.852262	0.000000	0.007834	0.000000	-0.000002	-0.000000	0.000000	0.000000
69.733611	23.366033	11.382808	-0.133045	0.176909	2.854592	0.000000	0.015293	0.000000	-0.000002	-0.000000	0.000000	0.000000
70.282671	23.110845	11.416408	0.595067	-0.238467	2.839796	0.000000	-0.069109	0.000000	-0.000002	-0.000000	0.000000	0.000000
