#ParticleID	Turn	x[m]	xp	y[m]	yp	z[m]	dE[GeV]# s	beta_x	beta_y	alpha_x	alpha_y	D_x	D_y	D_px	D_py	orbit_x	orbit_px	orbit_y	orbit_py
0.300000	11.825842	24.970093	-0.012516	-0.027674	2.618154	0.000000	-0.000003	0.000000	-0.000000	0.000000	0.000000	0.000000
0.601250	11.841058	24.990404	-0.037994	-0.039748	2.618153	0.000000	-0.000003	0.000000	0.000000	0.000000	0.000000	0.000000
0.898573	11.871127	25.017583	-0.034028	-0.113015	2.618152	0.000000	-0.006423	0.000000	0.000000	0.000000	0.000000	0.000000
1.339533	12.053416	24.839767	-0.380930	0.514727	2.631613	0.000000	0.067535	0.000000	0.000000	0.000000	0.000000	0.000000
1.780493	12.548134	24.116585	-0.745236	1.119050	2.677824	0.000000	0.142262	0.000000	0.000000	0.000000	0.000000	0.000000
2.221453	13.377882	22.880940	-1.143590	1.672456	2.757314	0.000000	0.218610	0.000000	0.000001	0.000000	0.000000	0.000000
2.662413	14.580571	21.189055	-1.594190	2.149767	2.870986	0.000000	0.297447	0.000000	0.000001	0.000000	0.000000	0.000000
3.108373	16.231935	19.093093	-2.121922	2.530396	3.021996	0.000000	0.380162	0.000000	0.000001	0.000000	0.000000	0.000000
3.657433	18.349498	16.739096	-1.711954	1.782232	3.205456	0.000000	0.287124	0.000000	0.000001	0.000000	0.000000	0.000000
4.206493	19.947397	15.132560	-1.181063	1.161013	3.336357	0.000000	0.188993	0.000000	0.000001	0.000000	0.000000	0.000000
4.755553	20.912764	14.159057	-0.566747	0.622490	3.412377	0.000000	0.087510	0.000000	0.000002	0.000000	0.000000	0.000000
5.304613	21.177410	13.749244	0.087602	0.128306	3.432169	0.000000	-0.015525	0.000000	0.000002	0.000000	0.000000	0.000000
5.603185	21.162354	13.657834	0.018156	0.141928	3.430210	0.000000	-0.006558	0.000000	0.000002	0.000000	0.000000	0.000000
5.936519	21.155502	13.571514	0.002400	0.117030	3.428025	0.000000	-0.006558	0.000000	0.000002	0.000000	0.000000	0.000000
6.269852	21.159154	13.501793	-0.013356	0.092133	3.425839	0.000000	-0.006558	0.000000	0.000002	0.000000	0.000000	0.000000
6.604435	21.173383	13.448503	-0.029172	0.067142	3.423644	0.000000	-0.006558	0.000000	0.000002	0.000000	0.000000	0.000000
6.901758	21.194909	13.415180	-0.098604	0.079984	3.421695	0.000000	0.002382	0.000000	0.000002	0.000000	0.000000	0.000000
7.450818	20.941910	13.587941	0.556662	-0.396490	3.394801	0.000000	-0.100198	0.000000	0.000002	0.000000	0.000000	0.000000
7.999878	19.986784	14.296272	1.172607	-0.901205	3.311991	0.000000	-0.201002	0.000000	0.000002	0.000000	0.000000	0.000000
8.548938	18.396996	15.590627	1.705725	-1.470111	3.174732	0.000000	-0.298240	0.000000	0.000002	0.000000	0.000000	0.000000
9.097998	16.284841	17.563199	2.118359	-2.143730	2.985459	0.000000	-0.390189	0.000000	0.000002	-0.000000	0.000000	0.000000
9.543958	14.636888	19.320906	1.590072	-1.781014	2.829757	0.000000	-0.308483	0.000000	0.000002	0.000000	0.000000	0.000000
9.984918	13.438144	20.701739	1.138727	-1.338494	2.710974	0.000000	-0.230774	0.000000	0.000002	0.000000	0.000000	0.000000
10.425878	12.613093	21.663857	0.739406	-0.835074	2.625847	0.000000	-0.155694	0.000000	0.000003	0.000000	0.000000	0.000000
10.866838	12.124040	22.163484	0.373867	-0.293658	2.573405	0.000000	-0.082387	0.000000	0.000003	0.000000	0.000000	0.000000
11.309048	11.948504	22.177371	0.054604	0.206675	2.553031	0.000000	-0.016278	0.000000	0.000003	0.000000	0.000000	0.000000
11.606371	11.923455	22.058629	0.029646	0.192695	2.548190	0.000000	-0.016278	0.000000	0.000003	0.000000	0.000000	0.000000
12.086371	11.914335	21.884474	-0.010646	0.170127	2.540377	0.000000	-0.016278	0.000000	0.000003	0.000000	0.000000	0.000000
12.566371	11.943895	21.731984	-0.050938	0.147559	2.532563	0.000000	-0.016278	0.000000	0.000003	0.000000	0.000000	0.000000
13.046371	12.012136	21.601161	-0.091230	0.124991	2.524749	0.000000	-0.016278	0.000000	0.000003	0.000000	0.000000	0.000000
13.526371	12.119058	21.492002	-0.131523	0.102423	2.516935	0.000000	-0.016278	0.000000	0.000003	0.000000	0.000000	0.000000
14.007621	12.265089	21.404309	-0.171920	0.079796	2.509101	0.000000	-0.016278	0.000000	0.000003	0.000000	0.000000	0.000000
14.304943	12.374741	21.361016	-0.166532	0.013435	2.504261	0.000000	-0.022419	0.000000	0.000004	0.000000	0.000000	0.000000
14.745903	12.680277	21.115350	-0.528984	0.541561	2.510006	0.000000	0.048503	0.000000	0.000004	0.000000	0.000000	0.000000
15.186863	13.314876	20.413046	-0.915605	1.045047	2.547118	0.000000	0.119978	0.000000	0.000004	0.000000	0.000000	0.000000
15.627823	14.307530	19.286059	-1.344056	1.500984	2.616018	0.000000	0.192820	0.000000	0.000004	0.000001	0.000000	0.000000
16.068783	15.703591	17.785666	-1.833914	1.888628	2.717491	0.000000	0.267858	0.000000	0.000004	0.000001	0.000000	0.000000
16.514743	17.590496	15.958631	-2.412315	2.191089	2.854388	0.000000	0.346408	0.000000	0.000005	0.000001	0.000000	0.000000
17.063803	20.013776	13.918480	-1.975065	1.546559	3.020857	0.000000	0.259076	0.000000	0.000005	0.000001	0.000000	0.000000
17.612863	21.876989	12.521819	-1.398305	1.012188	3.138040	0.000000	0.167149	0.000000	0.000005	0.000000	0.000000	0.000000
18.161923	23.048525	11.669165	-0.722777	0.549913	3.203861	0.000000	0.072257	0.000000	0.000006	0.000000	0.000000	0.000000
18.710983	23.445635	11.299786	0.003805	0.126806	3.217151	0.000000	-0.023917	0.000000	0.000006	0.000000	0.000000	0.000000
19.009556	23.483756	11.214517	-0.070228	0.129260	3.212520	0.000000	-0.015512	0.000000	0.000006	0.000000	0.000000	0.000000
19.342889	23.535329	11.138416	-0.084492	0.099040	3.207349	0.000000	-0.015512	0.000000	0.000006	0.000000	0.000000	0.000000
19.676223	23.596412	11.082463	-0.098756	0.068820	3.202178	0.000000	-0.015512	0.000000	0.000006	0.000000	0.000000	0.000000
20.010806	23.667580	11.046423	-0.230336	0.093218	3.197008	0.000000	0.000328	0.000000	0.000006	0.000000	0.000000	0.000000
20.308129	23.808481	10.999063	-0.305769	0.094805	3.197106	0.000000	0.008681	0.000000	0.000006	0.000000	0.000000	0.000000
20.857189	23.733623	11.117401	0.441300	-0.311606	3.175652	0.000000	-0.086711	0.000000	0.000006	-0.000000	0.000000	0.000000
21.406249	22.850725	11.691523	1.157199	-0.740212	3.102169	0.000000	-0.180565	0.000000	0.000006	-0.000000	0.000000	0.000000
21.955309	21.222149	12.762323	1.791358	-1.221541	2.977959	0.000000	-0.271216	0.000000	0.000006	-0.000000	0.000000	0.000000
22.504369	18.962931	14.406071	2.298986	-1.789879	2.805225	0.000000	-0.357057	0.000000	0.000005	-0.000001	0.000000	0.000000
22.950329	17.182571	15.881733	1.707303	-1.505119	2.663285	0.000000	-0.279847	0.000000	0.000005	-0.000000	0.000000	0.000000
23.391289	15.906151	17.058217	1.198318	-1.152734	2.556206	0.000000	-0.206279	0.000000	0.000005	-0.000000	0.000000	0.000000
23.832249	15.052867	17.899523	0.744082	-0.747901	2.481020	0.000000	-0.135061	0.000000	0.000005	-0.000000	0.000000	0.000000
24.273209	14.583736	18.367371	0.323841	-0.309039	2.436868	0.000000	-0.065380	0.000000	0.000005	-0.000000	0.000000	0.000000
24.715418	14.477439	18.440230	-0.046191	0.098596	2.423247	0.000000	-0.002387	0.000000	0.000005	0.000000	0.000000	0.000000
25.012741	14.511025	18.386440	-0.066772	0.082316	2.422538	0.000000	-0.002387	0.000000	0.000005	0.000000	0.000000	0.000000
25.346075	14.563231	18.337647	-0.089845	0.064064	2.421742	0.000000	-0.002387	0.000000	0.000005	0.000000	0.000000	0.000000
25.679408	14.630818	18.301022	-0.112919	0.045812	2.420946	0.000000	-0.002387	0.000000	0.000005	0.000000	0.000000	0.000000
26.013991	14.713830	18.276867	-0.016710	-0.120780	2.420123	0.000000	-0.022020	0.000000	0.000005	0.000000	0.000000	0.000000
26.311314	14.729777	18.353595	-0.000803	-0.182291	2.413576	0.000000	-0.027939	0.000000	0.000005	-0.000000	0.000000	0.000000
26.752274	14.911981	18.315276	-0.413965	0.268860	2.416367	0.000000	0.040608	0.000000	0.000005	0.000000	0.000000	0.000000
27.193234	15.465493	17.882973	-0.846040	0.707778	2.449457	0.000000	0.109617	0.000000	0.000005	0.000000	0.000000	0.000000
27.634194	16.415601	17.076355	-1.316768	1.114492	2.513223	0.000000	0.179875	0.000000	0.000005	0.000000	0.000000	0.000000
28.075154	17.805712	15.932123	-1.847655	1.470499	2.608392	0.000000	0.252181	0.000000	0.000005	0.000001	0.000000	0.000000
28.521114	19.723491	14.485106	-2.467916	1.760512	2.737651	0.000000	0.327803	0.000000	0.000006	0.000001	0.000000	0.000000
29.070174	22.160999	12.872730	-1.945224	1.193433	2.894970	0.000000	0.244402	0.000000	0.000006	0.000000	0.000000	0.000000
29.619234	23.945221	11.833020	-1.285132	0.711361	3.005237	0.000000	0.156665	0.000000	0.000006	0.000000	0.000000	0.000000
30.168294	24.950127	11.291921	-0.534264	0.279957	3.066496	0.000000	0.066150	0.000000	0.000006	0.000000	0.000000	0.000000
30.717354	25.104736	11.210891	0.254342	-0.131506	3.077662	0.000000	-0.025539	0.000000	0.000006	-0.000000	0.000000	0.000000
31.015927	24.995701	11.279963	0.176435	-0.129126	3.072437	0.000000	-0.017498	0.000000	0.000006	-0.000000	0.000000	0.000000
31.349260	24.882662	11.376062	0.162684	-0.159170	3.066605	0.000000	-0.017498	0.000000	0.000006	-0.000000	0.000000	0.000000
31.682593	24.778789	11.492190	0.148933	-0.189213	3.060772	0.000000	-0.017498	0.000000	0.000006	-0.000000	0.000000	0.000000
32.017177	24.683746	11.628895	0.135131	-0.219370	3.054918	0.000000	-0.017498	0.000000	0.000006	-0.000000	0.000000	0.000000
32.314499	24.607038	11.767310	0.058575	-0.215423	3.049715	0.000000	-0.009530	0.000000	0.000006	-0.000000	0.000000	0.000000
32.863559	24.121166	12.243176	0.821103	-0.656385	3.019600	0.000000	-0.100006	0.000000	0.000006	-0.000000	0.000000	0.000000
33.412619	22.824995	13.225949	1.525631	-1.144099	2.940223	0.000000	-0.188708	0.000000	0.000006	-0.000000	0.000000	0.000000
33.961679	20.810081	14.785629	2.122397	-1.713305	2.812991	0.000000	-0.274063	0.000000	0.000005	-0.000001	0.000000	0.000000
34.510739	18.218746	17.033309	2.569248	-2.404546	2.640162	0.000000	-0.354557	0.000000	0.000005	-0.000001	0.000000	0.000000
34.956699	16.203970	19.043727	1.964780	-2.084696	2.498386	0.000000	-0.281627	0.000000	0.000005	-0.000001	0.000000	0.000000
35.397659	14.701647	20.706051	1.455083	-1.670742	2.389582	0.000000	-0.212332	0.000000	0.000004	-0.000001	0.000000	0.000000
35.838619	13.617933	21.968257	1.011864	-1.180770	2.310772	0.000000	-0.145456	0.000000	0.000004	-0.000000	0.000000	0.000000
36.279579	12.903317	22.772916	0.614875	-0.637075	2.261059	0.000000	-0.080236	0.000000	0.000004	-0.000000	0.000000	0.000000
36.721789	12.524458	23.083719	0.276585	-0.121053	2.239849	0.000000	-0.021423	0.000000	0.000004	-0.000000	0.000000	0.000000
37.019112	12.367587	23.159588	0.251029	-0.134121	2.233480	0.000000	-0.021423	0.000000	0.000004	-0.000000	0.000000	0.000000
37.352445	12.209784	23.253886	0.222379	-0.148773	2.226339	0.000000	-0.021423	0.000000	0.000004	-0.000000	0.000000	0.000000
37.685779	12.071082	23.357952	0.193728	-0.163425	2.219198	0.000000	-0.021423	0.000000	0.000004	-0.000000	0.000000	0.000000
38.020362	11.951067	23.472231	0.164970	-0.178132	2.212030	0.000000	-0.021423	0.000000	0.000003	-0.000000	0.000000	0.000000
38.317684	11.860567	23.582042	0.168499	-0.249029	2.205661	0.000000	-0.026832	0.000000	0.000003	-0.000000	0.000000	0.000000
38.758644	11.863227	23.540480	-0.174555	0.342925	2.207757	0.000000	0.036346	0.000000	0.000003	-0.000000	0.000000	0.000000
39.199604	12.170794	22.981773	-0.525585	0.919277	2.237776	0.000000	0.099938	0.000000	0.000003	-0.000000	0.000000	0.000000
39.640564	12.797320	21.931343	-0.900627	1.453802	2.296061	0.000000	0.164668	0.000000	0.000003	-0.000000	0.000000	0.000000
40.081524	13.771429	20.436983	-1.316816	1.922181	2.383275	0.000000	0.231273	0.000000	0.000003	0.000000	0.000000	0.000000
40.527484	15.155191	18.544118	-1.796992	2.304381	2.501884	0.000000	0.300918	0.000000	0.000003	0.000000	0.000000	0.000000
41.076544	16.921208	16.417086	-1.400404	1.592437	2.646576	0.000000	0.225360	0.000000	0.000003	0.000000	0.000000	0.000000
41.625604	18.194495	15.005355	-0.904899	0.993919	2.748622	0.000000	0.145805	0.000000	0.000003	-0.000000	0.000000	0.000000
42.174664	18.885114	14.208368	-0.345476	0.466196	2.806212	0.000000	0.063664	0.000000	0.000003	-0.000000	0.000000	0.000000
42.723724	18.944284	13.969360	0.238349	-0.028322	2.818325	0.000000	-0.019606	0.000000	0.000003	-0.000000	0.000000	0.000000
43.022297	18.836385	13.970859	0.172530	-0.013198	2.814670	0.000000	-0.012243	0.000000	0.000003	-0.000000	0.000000	0.000000
43.502297	18.683352	14.000023	0.146289	-0.047561	2.808794	0.000000	-0.012243	0.000000	0.000003	-0.000000	0.000000	0.000000
43.982297	18.555511	14.062176	0.120048	-0.081924	2.802917	0.000000	-0.012243	0.000000	0.000003	-0.000000	0.000000	0.000000
44.462297	18.452861	14.157318	0.093806	-0.116288	2.797041	0.000000	-0.012243	0.000000	0.000002	-0.000000	0.000000	0.000000
44.942297	18.375402	14.285448	0.067565	-0.150651	2.791164	0.000000	-0.012243	0.000000	0.000002	-0.000000	0.000000	0.000000
45.423547	18.323259	14.446851	-0.049528	-0.113525	2.785290	0.000000	0.001557	0.000000	0.000002	-0.000000	0.000000	0.000000
45.720870	18.357547	14.520556	-0.113758	-0.096432	2.785753	0.000000	0.008836	0.000000	0.000002	-0.000000	0.000000	0.000000
46.269930	18.173356	14.907347	0.447237	-0.612188	2.768033	0.000000	-0.073289	0.000000	0.000002	-0.000000	0.000000	0.000000
46.818990	17.386905	15.880979	0.976642	-1.171549	2.705512	0.000000	-0.154113	0.000000	0.000002	-0.000000	0.000000	0.000000
47.368050	16.053745	17.510800	1.437062	-1.814357	2.599300	0.000000	-0.232204	0.000000	0.000002	-0.000000	0.000000	0.000000
47.917110	14.268042	19.912898	1.795975	-2.586397	2.451282	0.000000	-0.306176	0.000000	0.000001	-0.000000	0.000000	0.000000
48.363070	12.878324	22.048650	1.331306	-2.182581	2.330031	0.000000	-0.237878	0.000000	0.000001	-0.000000	0.000000	0.000000
48.804030	11.884407	23.758723	0.931228	-1.680729	2.239596	0.000000	-0.172687	0.000000	0.000001	-0.000000	0.000000	0.000000
49.244990	11.223305	24.990662	0.573695	-1.102406	2.177448	0.000000	-0.109462	0.000000	0.000001	-0.000000	0.000000	0.000000
49.685950	10.864812	25.688415	0.242372	-0.473924	2.142877	0.000000	-0.047484	0.000000	0.000001	-0.000000	0.000000	0.000000
50.128160	10.792679	25.819953	-0.051527	0.112754	2.135502	0.000000	0.008716	0.000000	0.000000	-0.000000	0.000000	0.000000
50.425482	10.831532	25.756372	-0.079148	0.101093	2.138094	0.000000	0.008716	0.000000	0.000000	-0.000000	0.000000	0.000000
50.758816	10.894619	25.693335	-0.110116	0.088018	2.140999	0.000000	0.008716	0.000000	0.000000	-0.000000	0.000000	0.000000
51.092149	10.978352	25.639014	-0.141083	0.074944	2.143904	0.000000	0.008716	0.000000	-0.000000	-0.000000	0.000000	0.000000
51.426732	11.082935	25.593774	-0.082254	-0.145808	2.146799	0.000000	-0.008700	0.000000	-0.000000	-0.000000	0.000000	0.000000
51.724055	11.139877	25.684005	-0.081944	-0.220657	2.144212	0.000000	-0.013959	0.000000	-0.000000	-0.000000	0.000000	0.000000
52.165015	11.357571	25.592886	-0.413609	0.426507	2.151646	0.000000	0.047704	0.000000	-0.000000	-0.000000	0.000000	0.000000
52.605975	11.874962	24.937431	-0.764171	1.054265	2.186363	0.000000	0.109910	0.000000	-0.000001	-0.000000	0.000000	0.000000
53.046935	12.715689	23.747461	-1.149646	1.634055	2.248761	0.000000	0.173367	0.000000	-0.000001	-0.000000	0.000000	0.000000
53.487895	13.918163	22.077120	-1.587645	2.139497	2.339549	0.000000	0.238799	0.000000	-0.000001	-0.000000	0.000000	0.000000
53.933855	15.557930	19.977429	-2.102414	2.548928	2.461267	0.000000	0.307350	0.000000	-0.000001	-0.000000	0.000000	0.000000
54.482915	17.669040	17.614813	-1.719778	1.779492	2.609841	0.000000	0.233046	0.000000	-0.000001	-0.000000	0.000000	0.000000
55.031975	19.290372	16.022988	-1.215666	1.136805	2.716420	0.000000	0.154607	0.000000	-0.000002	-0.000000	0.000000	0.000000
55.581035	20.307405	15.088570	-0.625686	0.575090	2.779115	0.000000	0.073427	0.000000	-0.000002	-0.000000	0.000000	0.000000
56.130095	20.648300	14.745004	0.008490	0.054338	2.796813	0.000000	-0.009056	0.000000	-0.000002	-0.000000	0.000000	0.000000
56.428668	20.679773	14.695648	-0.059951	0.072441	2.796291	0.000000	-0.001748	0.000000	-0.000002	-0.000000	0.000000	0.000000
56.762001	20.725132	14.654955	-0.076127	0.049640	2.795708	0.000000	-0.001748	0.000000	-0.000002	-0.000000	0.000000	0.000000
57.095334	20.781276	14.629462	-0.092304	0.026838	2.795125	0.000000	-0.001748	0.000000	-0.000002	-0.000000	0.000000	0.000000
57.429918	20.848476	14.619161	-0.108541	0.003951	2.794540	0.000000	-0.001748	0.000000	-0.000002	-0.000000	0.000000	0.000000
57.727240	20.917310	14.622858	-0.177625	0.021820	2.794021	0.000000	0.005552	0.000000	-0.000002	-0.000000	0.000000	0.000000
58.276300	20.755465	14.879749	0.470647	-0.492456	2.774430	0.000000	-0.076810	0.000000	-0.000003	-0.000000	0.000000	0.000000
58.825360	19.895863	15.717210	1.085674	-1.041810	2.709925	0.000000	-0.157809	0.000000	-0.000003	-0.000000	0.000000	0.000000
59.374420	18.399222	17.194891	1.624014	-1.665369	2.601650	0.000000	-0.236010	0.000000	-0.000003	-0.000000	0.000000	0.000000
59.923480	16.371258	19.418045	2.047643	-2.407549	2.451527	0.000000	-0.310024	0.000000	-0.000003	0.000000	0.000000	0.000000
60.369440	14.783918	21.394057	1.524338	-2.004667	2.328559	0.000000	-0.241742	0.000000	-0.000003	-0.000000	0.000000	0.000000
60.810400	13.642097	22.950666	1.074885	-1.511946	2.236408	0.000000	-0.176611	0.000000	-0.000003	-0.000000	0.000000	0.000000
61.251360	12.873585	24.040624	0.674541	-0.950433	2.172507	0.000000	-0.113491	0.000000	-0.000003	-0.000000	0.000000	0.000000
61.692320	12.443272	24.614340	0.305015	-0.345676	2.136129	0.000000	-0.051664	0.000000	-0.000003	-0.000000	0.000000	0.000000
62.134530	12.331549	24.645173	-0.020435	0.214316	2.126863	0.000000	0.004359	0.000000	-0.000003	-0.000000	0.000000	0.000000
62.431853	12.350873	24.521483	-0.044556	0.201698	2.128160	0.000000	0.004359	0.000000	-0.000003	-0.000000	0.000000	0.000000
62.765186	12.389591	24.391733	-0.071598	0.187551	2.129613	0.000000	0.004359	0.000000	-0.000003	-0.000000	0.000000	0.000000
63.098520	12.446337	24.271415	-0.098641	0.173404	2.131066	0.000000	0.004359	0.000000	-0.000003	-0.000000	0.000000	0.000000
63.433103	12.521426	24.160129	-0.125784	0.159205	2.132525	0.000000	0.004359	0.000000	-0.000003	-0.000000	0.000000	0.000000
63.730426	12.603395	24.069211	-0.118997	0.087560	2.133821	0.000000	-0.000874	0.000000	-0.000003	-0.000000	0.000000	0.000000
64.171386	12.868797	23.726904	-0.485160	0.685763	2.146976	0.000000	0.060595	0.000000	-0.000003	-0.000000	0.000000	0.000000
64.612346	13.465643	22.868826	-0.873490	1.252764	2.187362	0.000000	0.122753	0.000000	-0.000004	-0.000000	0.000000	0.000000
65.053306	14.421201	21.534018	-1.301726	1.762766	2.255439	0.000000	0.186310	0.000000	-0.000004	-0.000001	0.000000	0.000000
65.494266	15.779127	19.783214	-1.789435	2.192563	2.351984	0.000000	0.251988	0.000000	-0.000004	-0.000001	0.000000	0.000000
65.940226	17.624628	17.671291	-2.363590	2.523357	2.479666	0.000000	0.320938	0.000000	-0.000004	-0.000001	0.000000	0.000000
66.489286	19.990249	15.308647	-1.919398	1.805113	2.635516	0.000000	0.245920	0.000000	-0.000005	-0.000001	0.000000	0.000000
67.038346	21.790307	13.659912	-1.339630	1.215444	2.748915	0.000000	0.166539	0.000000	-0.000005	-0.000000	0.000000	0.000000
67.587406	22.897653	12.607650	-0.665236	0.712348	2.817854	0.000000	0.084205	0.000000	-0.000005	-0.000000	0.000000	0.000000
68.136466	23.234072	12.076910	0.056146	0.259991	2.841108	0.000000	0.000377	0.000000	-0.000005	-0.000000	0.000000	0.000000
68.435038	23.240633	11.910823	-0.017414	0.264723	2.843437	0.000000	0.007800	0.000000	-0.000005	-0.000000	0.000000	0.000000
68.768372	23.257025	11.744323	-0.031761	0.234776	2.846037	0.000000	0.007800	0.000000	-0.000006	-0.000000	0.000000	0.000000
69.101705	23.282982	11.597788	-0.046108	0.204829	2.848637	0.000000	0.007800	0.000000	-0.000006	-0.000000	0.000000	0.000000
69.436288	23.318654	11.470780	-0.060509	0.174770	2.851247	0.000000	0.007800	0.000000	-0.000006	-0.000000	0.000000	0.000000
69.733611	23.358440	11.374796	-0.134340	0.177780	2.853566	0.000000	0.015256	0.000000	-0.000006	-0.000000	0.000000	0.000000
70.282671	23.104800	11.407314	0.593559	-0.237355	2.838760	0.000000	-0.069112	0.000000	-0.000006	0.000000	0.000000	0.000000
