#ParticleID	Turn	x[m]	xp	y[m]	yp	z[m]	dE[GeV]# s	beta_x	beta_y	alpha_x	alpha_y	D_x	D_y	D_px	D_py	orbit_x	orbit_px	orbit_y	orbit_py
0.300000	11.830108	24.954228	-0.013110	-0.027746	2.618245	0.000000	-0.000039	0.000000	-0.000000	0.000000	0.000000	0.000000
0.601250	11.845680	24.974584	-0.038579	-0.039827	2.618233	0.000000	-0.000039	0.000000	0.000000	0.000000	0.000000	0.000000
0.898573	11.876094	25.001812	-0.034593	-0.113063	2.618221	0.000000	-0.006459	0.000000	0.000000	0.000000	0.000000	0.000000
1.339533	12.058935	24.824223	-0.381623	0.514264	2.631667	0.000000	0.067500	0.000000	0.000000	0.000000	0.000000	0.000000
1.780493	12.554331	24.101626	-0.746088	1.118192	2.677864	0.000000	0.142229	0.000000	0.000000	0.000000	0.000000	0.000000
2.221453	13.384916	22.866898	-1.144640	1.671243	2.757339	0.000000	0.218577	0.000000	0.000001	0.000000	0.000000	0.000000
2.662413	14.588635	21.176220	-1.595487	2.148253	2.870996	0.000000	0.297415	0.000000	0.000001	0.000000	0.000000	0.000000
3.108373	16.241288	19.081717	-2.123527	2.528651	3.021993	0.000000	0.380130	0.000000	0.000001	0.000000	0.000000	0.000000
3.657433	18.360494	16.729387	-1.713325	1.780924	3.205435	0.000000	0.287093	0.000000	0.000001	0.000000	0.000000	0.000000
4.206493	19.959724	15.124092	-1.182102	1.160049	3.336319	0.000000	0.188963	0.000000	0.000001	0.000000	0.000000	0.000000
4.755553	20.926016	14.151489	-0.567382	0.621802	3.412323	0.000000	0.087481	0.000000	0.000001	0.000000	0.000000	0.000000
5.304613	21.191116	13.742304	0.087415	0.127845	3.432099	0.000000	-0.015552	0.000000	0.000001	0.000000	0.000000	0.000000
5.603185	21.176190	13.651182	0.017943	0.141441	3.430133	0.000000	-0.006585	0.000000	0.000002	0.000000	0.000000	0.000000
5.936519	21.169477	13.565190	0.002197	0.116535	3.427938	0.000000	-0.006585	0.000000	0.000002	0.000000	0.000000	0.000000
6.269852	21.173260	13.495802	-0.013549	0.091628	3.425743	0.000000	-0.006585	0.000000	0.000002	0.000000	0.000000	0.000000
6.604435	21.187615	13.442852	-0.029354	0.066629	3.423539	0.000000	-0.006585	0.000000	0.000002	0.000000	0.000000	0.000000
6.901758	21.209246	13.409837	-0.098814	0.079450	3.421582	0.000000	0.002355	0.000000	0.000002	0.000000	0.000000	0.000000
7.450818	20.956212	13.583103	0.556934	-0.396882	3.394674	0.000000	-0.100222	0.000000	0.000002	0.000000	0.000000	0.000000
7.999878	20.000530	14.291801	1.173342	-0.901483	3.311852	0.000000	-0.201021	0.000000	0.000002	0.000000	0.000000	0.000000
8.548938	18.409703	15.586407	1.706871	-1.470295	3.174584	0.000000	-0.298255	0.000000	0.000002	0.000000	0.000000	0.000000
9.097998	16.296100	17.559135	2.119836	-2.143832	2.985304	0.000000	-0.390198	0.000000	0.000002	-0.000000	0.000000	0.000000
9.543958	14.646981	19.317000	1.591221	-1.781263	2.829597	0.000000	-0.308496	0.000000	0.000002	0.000000	0.000000	0.000000
9.984918	13.447348	20.698113	1.139602	-1.338877	2.710807	0.000000	-0.230792	0.000000	0.000002	0.000000	0.000000	0.000000
10.425878	12.621631	21.660621	0.740048	-0.835573	2.625671	0.000000	-0.155716	0.000000	0.000002	0.000000	0.000000	0.000000
10.866838	12.132103	22.160731	0.374304	-0.294251	2.573218	0.000000	-0.082414	0.000000	0.000002	0.000000	0.000000	0.000000
11.309048	11.956263	22.175174	0.054877	0.206020	2.552831	0.000000	-0.016310	0.000000	0.000002	0.000000	0.000000	0.000000
11.606371	11.931047	22.056821	0.029935	0.192043	2.547981	0.000000	-0.016310	0.000000	0.000002	0.000000	0.000000	0.000000
12.086371	11.921638	21.883290	-0.010332	0.169478	2.540152	0.000000	-0.016310	0.000000	0.000002	0.000000	0.000000	0.000000
12.566371	11.950885	21.731422	-0.050600	0.146914	2.532323	0.000000	-0.016310	0.000000	0.000002	0.000000	0.000000	0.000000
13.046371	12.018789	21.601216	-0.090867	0.124349	2.524494	0.000000	-0.016310	0.000000	0.000003	0.000000	0.000000	0.000000
13.526371	12.125350	21.492672	-0.131134	0.101785	2.516665	0.000000	-0.016310	0.000000	0.000003	0.000000	0.000000	0.000000
14.007621	12.270995	21.405591	-0.171506	0.079161	2.508816	0.000000	-0.016310	0.000000	0.000003	0.000000	0.000000	0.000000
14.304943	12.380397	21.362674	-0.166089	0.012798	2.503967	0.000000	-0.022450	0.000000	0.000003	0.000000	0.000000	0.000000
14.745903	12.685594	21.117545	-0.528656	0.540984	2.509697	0.000000	0.048464	0.000000	0.000003	0.000000	0.000000	0.000000
15.186863	13.319948	20.415715	-0.915376	1.044555	2.546789	0.000000	0.119931	0.000000	0.000003	0.000000	0.000000	0.000000
15.627823	14.312440	19.289117	-1.343917	1.500600	2.615667	0.000000	0.192764	0.000000	0.000003	0.000000	0.000000	0.000000
16.068783	15.708416	17.789009	-1.833858	1.888369	2.717113	0.000000	0.267792	0.000000	0.000003	0.000001	0.000000	0.000000
16.514743	17.595307	15.962144	-2.412340	2.190967	2.853979	0.000000	0.346333	0.000000	0.000004	0.000001	0.000000	0.000000
17.063803	20.018499	13.922156	-1.974881	1.546382	3.020410	0.000000	0.259015	0.000000	0.000004	0.000000	0.000000	0.000000
17.612863	21.881400	12.525725	-1.397926	1.011942	3.137564	0.000000	0.167102	0.000000	0.000004	0.000000	0.000000	0.000000
18.161923	23.052424	11.673387	-0.722229	0.549581	3.203364	0.000000	0.072226	0.000000	0.000004	0.000000	0.000000	0.000000
18.710983	23.448856	11.304430	0.004483	0.126364	3.216641	0.000000	-0.023932	0.000000	0.000004	0.000000	0.000000	0.000000
19.009556	23.486577	11.219413	-0.069556	0.128846	3.212005	0.000000	-0.015527	0.000000	0.000004	0.000000	0.000000	0.000000
19.342889	23.537702	11.143583	-0.083817	0.098642	3.206829	0.000000	-0.015527	0.000000	0.000005	0.000000	0.000000	0.000000
19.676223	23.598333	11.087890	-0.098078	0.068439	3.201653	0.000000	-0.015527	0.000000	0.000005	0.000000	0.000000	0.000000
20.010806	23.669047	11.052100	-0.229662	0.092881	3.196478	0.000000	0.000310	0.000000	0.000005	0.000000	0.000000	0.000000
20.308129	23.809546	11.004936	-0.305094	0.094499	3.196570	0.000000	0.008661	0.000000	0.000005	0.000000	0.000000	0.000000
20.857189	23.733931	11.123702	0.441996	-0.312084	3.175111	0.000000	-0.086713	0.000000	0.000005	-0.000000	0.000000	0.000000
21.406249	22.850280	11.698459	1.157866	-0.740897	3.101631	0.000000	-0.180550	0.000000	0.000005	-0.000000	0.000000	0.000000
21.955309	21.221009	12.770146	1.791950	-1.222481	2.977434	0.000000	-0.271184	0.000000	0.000004	-0.000000	0.000000	0.000000
22.504369	18.961202	14.415096	2.299460	-1.791141	2.804722	0.000000	-0.357008	0.000000	0.000004	-0.000000	0.000000	0.000000
22.950329	17.180425	15.891797	1.707768	-1.506177	2.662802	0.000000	-0.279811	0.000000	0.000004	-0.000000	0.000000	0.000000
23.391289	15.903590	17.069106	1.198796	-1.153540	2.555736	0.000000	-0.206255	0.000000	0.000004	-0.000000	0.000000	0.000000
23.832249	15.049871	17.910997	0.744595	-0.748418	2.480557	0.000000	-0.135048	0.000000	0.000004	-0.000000	0.000000	0.000000
24.273209	14.580264	18.379165	0.324411	-0.309244	2.436409	0.000000	-0.065380	0.000000	0.000004	-0.000000	0.000000	0.000000
24.715418	14.473427	18.452062	-0.045546	0.098683	2.422785	0.000000	-0.002397	0.000000	0.000004	0.000000	0.000000	0.000000
25.012741	14.506631	18.398218	-0.066131	0.082413	2.422073	0.000000	-0.002397	0.000000	0.000004	0.000000	0.000000	0.000000
25.346075	14.558412	18.349356	-0.089210	0.064172	2.421273	0.000000	-0.002397	0.000000	0.000004	0.000000	0.000000	0.000000
25.679408	14.625577	18.312655	-0.112288	0.045932	2.420474	0.000000	-0.002397	0.000000	0.000004	0.000000	0.000000	0.000000
26.013991	14.708169	18.288416	-0.016131	-0.120742	2.419648	0.000000	-0.022027	0.000000	0.000004	0.000000	0.000000	0.000000
26.311314	14.723773	18.365118	-0.000245	-0.182271	2.413099	0.000000	-0.027945	0.000000	0.000004	-0.000000	0.000000	0.000000
26.752274	14.905419	18.326644	-0.413251	0.269191	2.415884	0.000000	0.040590	0.000000	0.000004	0.000000	0.000000	0.000000
27.193234	15.458220	17.893917	-0.845136	0.708405	2.448963	0.000000	0.109587	0.000000	0.000004	0.000000	0.000000	0.000000
27.634194	16.407433	17.086625	-1.315634	1.115387	2.512713	0.000000	0.179831	0.000000	0.000004	0.000000	0.000000	0.000000
28.075154	17.796423	15.941501	-1.846239	1.471620	2.607860	0.000000	0.252124	0.000000	0.000004	0.000000	0.000000	0.000000
28.521114	19.712788	14.493399	-2.466150	1.761810	2.737090	0.000000	0.327732	0.000000	0.000004	0.000001	0.000000	0.000000
29.070174	22.148494	12.879775	-1.943729	1.194422	2.894375	0.000000	0.244349	0.000000	0.000005	0.000000	0.000000	0.000000
29.619234	23.931271	11.839117	-1.284012	0.712110	3.004619	0.000000	0.156632	0.000000	0.000005	0.000000	0.000000	0.000000
30.168294	24.935192	11.297301	-0.533600	0.280521	3.065866	0.000000	0.066137	0.000000	0.000005	0.000000	0.000000	0.000000
30.717354	25.089345	11.215735	0.254504	-0.131088	3.077030	0.000000	-0.025531	0.000000	0.000005	-0.000000	0.000000	0.000000
31.015927	24.980193	11.284546	0.176627	-0.128681	3.071808	0.000000	-0.017491	0.000000	0.000005	-0.000000	0.000000	0.000000
31.349260	24.867028	11.380343	0.162867	-0.158709	3.065977	0.000000	-0.017491	0.000000	0.000005	-0.000000	0.000000	0.000000
31.682593	24.763037	11.496158	0.149107	-0.188737	3.060147	0.000000	-0.017491	0.000000	0.000005	-0.000000	0.000000	0.000000
32.017177	24.667881	11.632539	0.135295	-0.218878	3.054295	0.000000	-0.017491	0.000000	0.000005	-0.000000	0.000000	0.000000
32.314499	24.591077	11.770658	0.058772	-0.214909	3.049094	0.000000	-0.009525	0.000000	0.000005	-0.000000	0.000000	0.000000
32.863559	24.105281	12.245998	0.820767	-0.655937	3.018987	0.000000	-0.099981	0.000000	0.000005	-0.000000	0.000000	0.000000
33.412619	22.809762	13.228300	1.524788	-1.143685	2.939629	0.000000	-0.188664	0.000000	0.000004	-0.000000	0.000000	0.000000
33.961679	20.796027	14.787532	2.121105	-1.712896	2.812427	0.000000	-0.274000	0.000000	0.000004	-0.000001	0.000000	0.000000
34.510739	18.206318	17.034752	2.567598	-2.404113	2.639637	0.000000	-0.354476	0.000000	0.000004	-0.000001	0.000000	0.000000
34.956699	16.192845	19.044739	1.963498	-2.084167	2.497894	0.000000	-0.281559	0.000000	0.000004	-0.000001	0.000000	0.000000
35.397659	14.691513	20.706562	1.454107	-1.670141	2.389116	0.000000	-0.212277	0.000000	0.000003	-0.000000	0.000000	0.000000
35.838619	13.608541	21.968217	1.011151	-1.180126	2.310328	0.000000	-0.145412	0.000000	0.000003	-0.000000	0.000000	0.000000
36.279579	12.894451	22.772299	0.614391	-0.636416	2.260632	0.000000	-0.080204	0.000000	0.000003	-0.000000	0.000000	0.000000
36.721789	12.515927	23.082524	0.276287	-0.120407	2.239434	0.000000	-0.021401	0.000000	0.000003	-0.000000	0.000000	0.000000
37.019112	12.359236	23.158009	0.250718	-0.133474	2.233071	0.000000	-0.021401	0.000000	0.000003	-0.000000	0.000000	0.000000
37.352445	12.201646	23.251875	0.222053	-0.148124	2.225938	0.000000	-0.021401	0.000000	0.000003	-0.000000	0.000000	0.000000
37.685779	12.063166	23.355508	0.193387	-0.162775	2.218805	0.000000	-0.021401	0.000000	0.000003	-0.000000	0.000000	0.000000
38.020362	11.943385	23.469351	0.164614	-0.177480	2.211644	0.000000	-0.021401	0.000000	0.000003	-0.000000	0.000000	0.000000
38.317684	11.853101	23.578774	0.168111	-0.248368	2.205282	0.000000	-0.026808	0.000000	0.000003	-0.000000	0.000000	0.000000
38.758644	11.856029	23.536669	-0.174777	0.343490	2.207385	0.000000	0.036360	0.000000	0.000002	-0.000000	0.000000	0.000000
39.199604	12.163723	22.977516	-0.525651	0.919721	2.237409	0.000000	0.099942	0.000000	0.000002	-0.000000	0.000000	0.000000
39.640564	12.790239	21.926755	-0.900541	1.454104	2.295693	0.000000	0.164662	0.000000	0.000002	-0.000000	0.000000	0.000000
40.081524	13.764203	20.432196	-1.316573	1.922327	2.382903	0.000000	0.231258	0.000000	0.000002	0.000000	0.000000	0.000000
40.527484	15.147674	18.539273	-1.796580	2.304364	2.501503	0.000000	0.300893	0.000000	0.000002	0.000000	0.000000	0.000000
41.076544	16.913389	16.412199	-1.400269	1.592531	2.646185	0.000000	0.225348	0.000000	0.000002	0.000000	0.000000	0.000000
41.625604	18.186685	15.000301	-0.905051	0.994130	2.748228	0.000000	0.145806	0.000000	0.000002	-0.000000	0.000000	0.000000
42.174664	18.877624	14.203012	-0.345904	0.466539	2.805822	0.000000	0.063677	0.000000	0.000002	-0.000000	0.000000	0.000000
42.723724	18.937401	13.963544	0.237676	-0.027822	2.817946	0.000000	-0.019581	0.000000	0.000002	-0.000000	0.000000	0.000000
43.022297	18.829895	13.964756	0.171872	-0.012722	2.814298	0.000000	-0.012218	0.000000	0.000002	-0.000000	0.000000	0.000000
43.502297	18.677494	13.993471	0.145628	-0.047100	2.808433	0.000000	-0.012218	0.000000	0.000002	-0.000000	0.000000	0.000000
43.982297	18.550289	14.055189	0.119384	-0.081478	2.802569	0.000000	-0.012218	0.000000	0.000002	-0.000000	0.000000	0.000000
44.462297	18.448278	14.149909	0.093139	-0.115856	2.796704	0.000000	-0.012218	0.000000	0.000002	-0.000000	0.000000	0.000000
44.942297	18.371461	14.277632	0.066895	-0.150234	2.790840	0.000000	-0.012218	0.000000	0.000002	-0.000000	0.000000	0.000000
45.423547	18.319965	14.438640	-0.050185	-0.113163	2.784977	0.000000	0.001580	0.000000	0.000002	-0.000000	0.000000	0.000000
45.720870	18.354645	14.512133	-0.114412	-0.096102	2.785447	0.000000	0.008858	0.000000	0.000002	-0.000000	0.000000	0.000000
46.269930	18.171221	14.898419	0.446505	-0.611591	2.767742	0.000000	-0.073256	0.000000	0.000002	-0.000000	0.000000	0.000000
46.818990	17.385594	15.871231	0.975883	-1.170643	2.705241	0.000000	-0.154072	0.000000	0.000001	-0.000000	0.000000	0.000000
47.368050	16.053258	17.499859	1.436329	-1.813078	2.599055	0.000000	-0.232154	0.000000	0.000001	-0.000000	0.000000	0.000000
47.917110	14.268323	19.900308	1.795320	-2.584653	2.451065	0.000000	-0.306119	0.000000	0.000001	-0.000000	0.000000	0.000000
48.363070	12.879162	22.034621	1.330705	-2.181111	2.329839	0.000000	-0.237826	0.000000	0.000001	-0.000000	0.000000	0.000000
48.804030	11.885762	23.743542	0.930653	-1.679598	2.239426	0.000000	-0.172640	0.000000	0.000001	-0.000000	0.000000	0.000000
49.244990	11.225165	24.974653	0.573119	-1.101666	2.177297	0.000000	-0.109419	0.000000	0.000001	-0.000000	0.000000	0.000000
49.685950	10.867189	25.671940	0.241770	-0.473608	2.142745	0.000000	-0.047445	0.000000	0.000000	-0.000000	0.000000	0.000000
50.128160	10.795610	25.803393	-0.052175	0.112671	2.135386	0.000000	0.008752	0.000000	0.000000	-0.000000	0.000000	0.000000
50.425482	10.834847	25.739863	-0.079792	0.101002	2.137989	0.000000	0.008752	0.000000	0.000000	-0.000000	0.000000	0.000000
50.758816	10.898361	25.676889	-0.110752	0.087920	2.140906	0.000000	0.008752	0.000000	0.000000	-0.000000	0.000000	0.000000
51.092149	10.982517	25.622637	-0.141713	0.074838	2.143824	0.000000	0.008752	0.000000	-0.000000	-0.000000	0.000000	0.000000
51.426732	11.087519	25.577470	-0.082841	-0.145790	2.146730	0.000000	-0.008663	0.000000	-0.000000	-0.000000	0.000000	0.000000
51.724055	11.144808	25.667693	-0.082510	-0.220607	2.144155	0.000000	-0.013921	0.000000	-0.000000	-0.000000	0.000000	0.000000
52.165015	11.363055	25.576721	-0.414303	0.426126	2.151604	0.000000	0.047740	0.000000	-0.000000	-0.000000	0.000000	0.000000
52.605975	11.881125	24.921787	-0.765023	1.053470	2.186337	0.000000	0.109945	0.000000	-0.000000	-0.000000	0.000000	0.000000
53.046935	12.722688	23.732688	-1.150696	1.632882	2.248750	0.000000	0.173402	0.000000	-0.000001	-0.000000	0.000000	0.000000
53.487895	13.926192	22.063529	-1.588940	2.137999	2.339554	0.000000	0.238834	0.000000	-0.000001	-0.000000	0.000000	0.000000
53.933855	15.567247	19.965295	-2.104017	2.547173	2.461287	0.000000	0.307385	0.000000	-0.000001	-0.000000	0.000000	0.000000
54.482915	17.679999	17.604345	-1.721149	1.778193	2.609879	0.000000	0.233079	0.000000	-0.000001	-0.000000	0.000000	0.000000
55.031975	19.302663	16.013740	-1.216707	1.135869	2.716477	0.000000	0.154640	0.000000	-0.000001	-0.000000	0.000000	0.000000
55.581035	20.320624	15.080182	-0.626324	0.574450	2.779189	0.000000	0.073457	0.000000	-0.000001	-0.000000	0.000000	0.000000
56.130095	20.661976	14.737178	0.008300	0.053949	2.796902	0.000000	-0.009029	0.000000	-0.000002	-0.000000	0.000000	0.000000
56.428668	20.693581	14.688070	-0.060167	0.072022	2.796389	0.000000	-0.001721	0.000000	-0.000002	-0.000000	0.000000	0.000000
56.762001	20.739081	14.647659	-0.076333	0.049210	2.795815	0.000000	-0.001721	0.000000	-0.000002	-0.000000	0.000000	0.000000
57.095334	20.795359	14.622456	-0.092500	0.026398	2.795242	0.000000	-0.001721	0.000000	-0.000002	-0.000000	0.000000	0.000000
57.429918	20.862686	14.612452	-0.108727	0.003501	2.794666	0.000000	-0.001721	0.000000	-0.000002	-0.000000	0.000000	0.000000
57.727240	20.931627	14.616420	-0.177838	0.021344	2.794154	0.000000	0.005580	0.000000	-0.000002	-0.000000	0.000000	0.000000
58.276300	20.769752	14.873735	0.470915	-0.492756	2.774577	0.000000	-0.076786	0.000000	-0.000002	-0.000000	0.000000	0.000000
58.825360	19.909598	15.711437	1.086405	-1.041953	2.710084	0.000000	-0.157791	0.000000	-0.000002	-0.000000	0.000000	0.000000
59.374420	18.411922	17.189196	1.625157	-1.665367	2.601818	0.000000	-0.235996	0.000000	-0.000002	-0.000000	0.000000	0.000000
59.923480	16.382513	19.412267	2.049115	-2.407401	2.451701	0.000000	-0.310016	0.000000	-0.000002	0.000000	0.000000	0.000000
60.369440	14.794011	21.388229	1.525482	-2.004702	2.328737	0.000000	-0.241730	0.000000	-0.000002	-0.000000	0.000000	0.000000
60.810400	13.651303	22.944949	1.075757	-1.512161	2.236593	0.000000	-0.176594	0.000000	-0.000002	-0.000000	0.000000	0.000000
61.251360	12.882128	24.035173	0.675180	-0.950818	2.172700	0.000000	-0.113469	0.000000	-0.000002	-0.000000	0.000000	0.000000
61.692320	12.451344	24.609296	0.305450	-0.346214	2.136332	0.000000	-0.051637	0.000000	-0.000002	-0.000000	0.000000	0.000000
62.134530	12.339319	24.640664	-0.020166	0.213662	2.127080	0.000000	0.004391	0.000000	-0.000002	-0.000000	0.000000	0.000000
62.431853	12.358478	24.517362	-0.044271	0.201045	2.128386	0.000000	0.004391	0.000000	-0.000002	-0.000000	0.000000	0.000000
62.765186	12.397001	24.388047	-0.071296	0.186899	2.129850	0.000000	0.004391	0.000000	-0.000002	-0.000000	0.000000	0.000000
63.098520	12.453540	24.268163	-0.098321	0.172754	2.131313	0.000000	0.004391	0.000000	-0.000002	-0.000000	0.000000	0.000000
63.433103	12.528409	24.157313	-0.125447	0.158556	2.132783	0.000000	0.004391	0.000000	-0.000003	-0.000000	0.000000	0.000000
63.730426	12.610173	24.066780	-0.118628	0.086918	2.134088	0.000000	-0.000843	0.000000	-0.000003	-0.000000	0.000000	0.000000
64.171386	12.875315	23.725062	-0.484937	0.685073	2.147258	0.000000	0.060633	0.000000	-0.000003	-0.000000	0.000000	0.000000
64.612346	13.472024	22.867601	-0.873402	1.252058	2.187663	0.000000	0.122799	0.000000	-0.000003	-0.000000	0.000000	0.000000
65.053306	14.427563	21.533412	-1.301769	1.762076	2.255762	0.000000	0.186363	0.000000	-0.000003	-0.000000	0.000000	0.000000
65.494266	15.785586	19.783198	-1.789611	2.191920	2.352332	0.000000	0.252051	0.000000	-0.000003	-0.000001	0.000000	0.000000
65.940226	17.631307	17.671816	-2.363909	2.522792	2.480045	0.000000	0.321010	0.000000	-0.000004	-0.000001	0.000000	0.000000
66.489286	19.997139	15.309757	-1.919462	1.804607	2.635930	0.000000	0.245979	0.000000	-0.000004	-0.000000	0.000000	0.000000
67.038346	21.797123	13.661562	-1.339433	1.214961	2.749358	0.000000	0.166584	0.000000	-0.000004	-0.000000	0.000000	0.000000
67.587406	22.904117	12.609833	-0.664794	0.711854	2.818318	0.000000	0.084235	0.000000	-0.000004	-0.000000	0.000000	0.000000
68.136466	23.239929	12.079658	0.056803	0.259451	2.841585	0.000000	0.000392	0.000000	-0.000004	-0.000000	0.000000	0.000000
68.435038	23.246106	11.913885	-0.016769	0.264204	2.843918	0.000000	0.007817	0.000000	-0.000004	-0.000000	0.000000	0.000000
68.768372	23.262067	11.747726	-0.031112	0.234272	2.846524	0.000000	0.007817	0.000000	-0.000004	-0.000000	0.000000	0.000000
69.101705	23.287589	11.601522	-0.045455	0.204340	2.849130	0.000000	0.007817	0.000000	-0.000004	-0.000000	0.000000	0.000000
69.436288	23.322823	11.474836	-0.059853	0.174297	2.851745	0.000000	0.007817	0.000000	-0.000004	-0.000000	0.000000	0.000000
69.733611	23.362218	11.379130	-0.133690	0.177331	2.854069	0.000000	0.015274	0.000000	-0.000004	-0.000000	0.000000	0.000000
70.282671	23.107801	11.412209	0.594315	-0.237934	2.839267	0.000000	-0.069111	0.000000	-0.000004	0.000000	0.000000	0.000000
