#ParticleID	Turn	x[m]	xp	y[m]	yp	z[m]	dE[GeV]# s	beta_x	beta_y	alpha_x	alpha_y	D_x	D_y	D_px	D_py	orbit_x	orbit_px	orbit_y	orbit_py
0.300000	11.813327	25.020986	-0.010949	-0.027266	2.618053	0.000000	0.000035	0.000000	-0.000001	0.000001	0.000000	0.000000
0.601250	11.827607	25.041043	-0.036453	-0.039315	2.618063	0.000000	0.000035	0.000000	-0.000000	0.000001	0.000000	0.000000
0.898573	11.856768	25.067957	-0.032548	-0.112680	2.618074	0.000000	-0.006385	0.000000	0.000000	0.000001	0.000000	0.000000
1.339533	12.037595	24.889259	-0.379085	0.516386	2.631551	0.000000	0.067572	0.000000	0.000001	0.000001	0.000000	0.000000
1.780493	12.530494	24.164056	-0.742941	1.121957	2.677778	0.000000	0.142297	0.000000	0.000001	0.000001	0.000000	0.000000
2.221453	13.357982	22.925344	-1.140739	1.676479	2.757282	0.000000	0.218644	0.000000	0.000002	0.000001	0.000000	0.000000
2.662413	14.557866	21.229483	-1.590655	2.154723	2.870969	0.000000	0.297481	0.000000	0.000002	0.000001	0.000000	0.000000
3.108373	16.205709	19.128765	-2.117533	2.536062	3.021994	0.000000	0.380196	0.000000	0.000003	0.000001	0.000000	0.000000
3.657433	18.318793	16.769344	-1.708234	1.786504	3.205472	0.000000	0.287157	0.000000	0.000004	0.000001	0.000000	0.000000
4.206493	19.913097	15.158741	-1.178273	1.164195	3.336390	0.000000	0.189026	0.000000	0.000004	0.000001	0.000000	0.000000
4.755553	20.876005	14.182234	-0.565085	0.624809	3.412427	0.000000	0.087541	0.000000	0.000005	0.000001	0.000000	0.000000
5.304613	21.139504	13.770271	0.088018	0.129926	3.432235	0.000000	-0.015496	0.000000	0.000005	0.000001	0.000000	0.000000
5.603185	21.124147	13.677855	0.018648	0.143625	3.430285	0.000000	-0.006529	0.000000	0.000006	0.000001	0.000000	0.000000
5.936519	21.116976	13.590396	0.002863	0.118752	3.428109	0.000000	-0.006529	0.000000	0.000006	0.000001	0.000000	0.000000
6.269852	21.120330	13.519519	-0.012923	0.093878	3.425932	0.000000	-0.006529	0.000000	0.000006	0.000001	0.000000	0.000000
6.604435	21.134279	13.465052	-0.028767	0.068912	3.423747	0.000000	-0.006529	0.000000	0.000007	0.000001	0.000000	0.000000
6.901758	21.155571	13.430670	-0.098119	0.081816	3.421806	0.000000	0.002411	0.000000	0.000007	0.000001	0.000000	0.000000
7.450818	20.902767	13.601652	0.555825	-0.395062	3.394927	0.000000	-0.100173	0.000000	0.000007	0.000001	0.000000	0.000000
7.999878	19.949261	14.308590	1.170509	-0.900080	3.312129	0.000000	-0.200981	0.000000	0.000008	0.000000	0.000000	0.000000
8.548938	18.362405	15.601838	1.702514	-1.469209	3.174880	0.000000	-0.298224	0.000000	0.000008	0.000000	0.000000	0.000000
9.097998	16.254286	17.573511	2.114262	-2.142986	2.985615	0.000000	-0.390178	0.000000	0.000008	-0.000000	0.000000	0.000000
9.543958	14.609575	19.330368	1.586874	-1.779858	2.829918	0.000000	-0.308467	0.000000	0.000008	0.000000	0.000000	0.000000
9.984918	13.413313	20.710020	1.136274	-1.336981	2.711144	0.000000	-0.230754	0.000000	0.000008	0.000000	0.000000	0.000000
10.425878	12.590138	21.670671	0.737587	-0.833273	2.626026	0.000000	-0.155670	0.000000	0.000008	0.000001	0.000000	0.000000
10.866838	12.102441	22.168613	0.372599	-0.291652	2.573595	0.000000	-0.082358	0.000000	0.000008	0.000001	0.000000	0.000000
11.309048	11.927805	22.180667	0.053776	0.208790	2.553234	0.000000	-0.016245	0.000000	0.000009	0.000001	0.000000	0.000000
11.606371	11.903260	22.060670	0.028777	0.194801	2.548404	0.000000	-0.016245	0.000000	0.000009	0.000001	0.000000	0.000000
12.086371	11.895006	21.884502	-0.011581	0.172217	2.540606	0.000000	-0.016245	0.000000	0.000009	0.000001	0.000000	0.000000
12.566371	11.925495	21.730014	-0.051940	0.149633	2.532809	0.000000	-0.016245	0.000000	0.000010	0.000001	0.000000	0.000000
13.046371	11.994729	21.597206	-0.092298	0.127049	2.525011	0.000000	-0.016245	0.000000	0.000010	0.000001	0.000000	0.000000
13.526371	12.102708	21.486079	-0.132657	0.104466	2.517213	0.000000	-0.016245	0.000000	0.000011	0.000001	0.000000	0.000000
14.007621	12.249863	21.396427	-0.173120	0.081823	2.509395	0.000000	-0.016245	0.000000	0.000011	0.000001	0.000000	0.000000
14.304943	12.360240	21.351931	-0.167811	0.015479	2.504564	0.000000	-0.022386	0.000000	0.000011	0.000001	0.000000	0.000000
14.745903	12.666774	21.104584	-0.529975	0.543315	2.510326	0.000000	0.048545	0.000000	0.000012	0.000001	0.000000	0.000000
15.186863	13.302135	20.400891	-0.916351	1.046432	2.547457	0.000000	0.120028	0.000000	0.000012	0.000002	0.000000	0.000000
15.627823	14.295354	19.272870	-1.344593	1.501936	2.616381	0.000000	0.192879	0.000000	0.000013	0.000002	0.000000	0.000000
16.068783	15.691806	17.771845	-1.834265	1.889104	2.717882	0.000000	0.267926	0.000000	0.000014	0.000002	0.000000	0.000000
16.514743	17.578948	15.944608	-2.412498	2.191063	2.854811	0.000000	0.346488	0.000000	0.000015	0.000003	0.000000	0.000000
17.063803	20.002723	13.904331	-1.975775	1.546817	3.021318	0.000000	0.259141	0.000000	0.000016	0.000002	0.000000	0.000000
17.612863	21.866984	12.507223	-1.399494	1.012746	3.138533	0.000000	0.167198	0.000000	0.000017	0.000002	0.000000	0.000000
18.161923	23.040052	11.653773	-0.724359	0.550812	3.204376	0.000000	0.072290	0.000000	0.000018	0.000001	0.000000	0.000000
18.710983	23.439064	11.283192	0.001941	0.128111	3.217679	0.000000	-0.023901	0.000000	0.000018	0.000000	0.000000	0.000000
19.009556	23.478286	11.197186	-0.072074	0.130468	3.213053	0.000000	-0.015495	0.000000	0.000019	0.000000	0.000000	0.000000
19.342889	23.531093	11.120300	-0.086345	0.100192	3.207888	0.000000	-0.015495	0.000000	0.000019	0.000000	0.000000	0.000000
19.676223	23.593413	11.063597	-0.100617	0.069916	3.202723	0.000000	-0.015495	0.000000	0.000019	0.000000	0.000000	0.000000
20.010806	23.665828	11.026843	-0.232195	0.094160	3.197558	0.000000	0.000348	0.000000	0.000019	0.000000	0.000000	0.000000
20.308129	23.807839	10.978940	-0.307631	0.095639	3.197661	0.000000	0.008701	0.000000	0.000019	0.000001	0.000000	0.000000
20.857189	23.735027	11.096049	0.439457	-0.310188	3.176214	0.000000	-0.086709	0.000000	0.000019	-0.000000	0.000000	0.000000
21.406249	22.854082	11.668249	1.155505	-0.738108	3.102727	0.000000	-0.180581	0.000000	0.000019	-0.000001	0.000000	0.000000
21.955309	21.227229	12.736296	1.789933	-1.218602	2.978503	0.000000	-0.271251	0.000000	0.000018	-0.000001	0.000000	0.000000
22.504369	18.969381	14.376265	2.297929	-1.785895	2.805746	0.000000	-0.357108	0.000000	0.000018	-0.000002	0.000000	0.000000
22.950329	17.189972	15.848669	1.706218	-1.501827	2.663787	0.000000	-0.279885	0.000000	0.000017	-0.000001	0.000000	0.000000
23.391289	15.914539	17.022610	1.197156	-1.150281	2.556695	0.000000	-0.206304	0.000000	0.000016	-0.000001	0.000000	0.000000
23.832249	15.062334	17.862165	0.742788	-0.746398	2.481499	0.000000	-0.135073	0.000000	0.000016	-0.000001	0.000000	0.000000
24.273209	14.594422	18.329134	0.322357	-0.308555	2.437345	0.000000	-0.065381	0.000000	0.000016	-0.000000	0.000000	0.000000
24.715418	14.489547	18.402026	-0.047907	0.098138	2.423727	0.000000	-0.002375	0.000000	0.000016	0.000000	0.000000	0.000000
25.012741	14.524149	18.348519	-0.068474	0.081825	2.423021	0.000000	-0.002375	0.000000	0.000016	0.000000	0.000000	0.000000
25.346075	14.577484	18.300065	-0.091532	0.063537	2.422229	0.000000	-0.002375	0.000000	0.000016	0.000000	0.000000	0.000000
25.679408	14.646191	18.263804	-0.114589	0.045248	2.421437	0.000000	-0.002375	0.000000	0.000016	0.000000	0.000000	0.000000
26.013991	14.730316	18.240037	-0.018232	-0.121081	2.420617	0.000000	-0.022013	0.000000	0.000016	0.000000	0.000000	0.000000
26.311314	14.747161	18.316955	-0.002264	-0.182532	2.414072	0.000000	-0.027932	0.000000	0.000016	0.000000	0.000000	0.000000
26.752274	14.930847	18.279286	-0.415876	0.267631	2.416869	0.000000	0.040627	0.000000	0.000016	0.000000	0.000000	0.000000
27.193234	15.486274	17.848483	-0.848489	0.705618	2.449970	0.000000	0.109650	0.000000	0.000016	0.000001	0.000000	0.000000
27.634194	16.438819	17.044146	-1.319866	1.111499	2.513754	0.000000	0.179921	0.000000	0.000017	0.000001	0.000000	0.000000
28.075154	17.831999	15.902872	-1.851544	1.466808	2.608946	0.000000	0.252241	0.000000	0.000018	0.000002	0.000000	0.000000
28.521114	19.753669	14.459397	-2.472782	1.756291	2.738234	0.000000	0.327878	0.000000	0.000018	0.000002	0.000000	0.000000
29.070174	22.196126	12.851094	-1.949316	1.190192	2.895588	0.000000	0.244457	0.000000	0.000019	0.000002	0.000000	0.000000
29.619234	23.984280	11.814515	-1.288159	0.708867	3.005879	0.000000	0.156700	0.000000	0.000020	0.000001	0.000000	0.000000
30.168294	24.991825	11.275826	-0.536014	0.278034	3.067152	0.000000	0.066164	0.000000	0.000020	0.000000	0.000000	0.000000
30.717354	25.147594	11.196658	0.253993	-0.132995	3.078319	0.000000	-0.025546	0.000000	0.000020	-0.000000	0.000000	0.000000
31.015927	25.038823	11.266657	0.176005	-0.130699	3.073093	0.000000	-0.017504	0.000000	0.000020	-0.000000	0.000000	0.000000
31.349260	24.926061	11.363820	0.162280	-0.160790	3.067258	0.000000	-0.017504	0.000000	0.000020	-0.000000	0.000000	0.000000
31.682593	24.822450	11.481043	0.148555	-0.190881	3.061424	0.000000	-0.017504	0.000000	0.000020	-0.000000	0.000000	0.000000
32.017177	24.727651	11.618880	0.134778	-0.221085	3.055567	0.000000	-0.017504	0.000000	0.000020	-0.000000	0.000000	0.000000
32.314499	24.651146	11.758328	0.058138	-0.217208	3.050363	0.000000	-0.009536	0.000000	0.000020	-0.000000	0.000000	0.000000
32.863559	24.164947	12.236058	0.822132	-0.658015	3.020239	0.000000	-0.100033	0.000000	0.000019	-0.000001	0.000000	0.000000
33.412619	22.866869	13.220589	1.528055	-1.145690	2.940842	0.000000	-0.188755	0.000000	0.000019	-0.000002	0.000000	0.000000
33.961679	20.848602	14.782047	2.126043	-1.714970	2.813579	0.000000	-0.274130	0.000000	0.000018	-0.000002	0.000000	0.000000
34.510739	18.252706	17.031650	2.573858	-2.406404	2.640709	0.000000	-0.354642	0.000000	0.000016	-0.000003	0.000000	0.000000
34.956699	16.234283	19.043843	1.968374	-2.086803	2.498899	0.000000	-0.281698	0.000000	0.000015	-0.000002	0.000000	0.000000
35.397659	14.729172	20.708099	1.457832	-1.672999	2.390067	0.000000	-0.212391	0.000000	0.000014	-0.000002	0.000000	0.000000
35.838619	13.643358	21.972324	1.013895	-1.183075	2.311234	0.000000	-0.145502	0.000000	0.000014	-0.000002	0.000000	0.000000
36.279579	12.927232	22.778998	0.616281	-0.639322	2.261504	0.000000	-0.080271	0.000000	0.000013	-0.000001	0.000000	0.000000
36.721789	12.547383	23.091725	0.277482	-0.123155	2.240282	0.000000	-0.021447	0.000000	0.000013	-0.000001	0.000000	0.000000
37.019112	12.389967	23.168845	0.251962	-0.136226	2.233906	0.000000	-0.021447	0.000000	0.000012	-0.000001	0.000000	0.000000
37.352445	12.231529	23.264547	0.223350	-0.150880	2.226757	0.000000	-0.021447	0.000000	0.000012	-0.000001	0.000000	0.000000
37.685779	12.092166	23.370018	0.194739	-0.165534	2.219608	0.000000	-0.021447	0.000000	0.000012	-0.000001	0.000000	0.000000
38.020362	11.971462	23.485709	0.166020	-0.180243	2.212433	0.000000	-0.021447	0.000000	0.000011	-0.000001	0.000000	0.000000
38.317684	11.880327	23.596776	0.169631	-0.251175	2.206057	0.000000	-0.026856	0.000000	0.000011	-0.000001	0.000000	0.000000
38.758644	11.882186	23.556927	-0.173862	0.341200	2.208144	0.000000	0.036332	0.000000	0.000011	-0.000001	0.000000	0.000000
39.199604	12.189322	22.999528	-0.525298	0.918050	2.238160	0.000000	0.099934	0.000000	0.000011	-0.000000	0.000000	0.000000
39.640564	12.815769	21.949938	-0.900734	1.453129	2.296445	0.000000	0.164673	0.000000	0.000011	-0.000000	0.000000	0.000000
40.081524	13.790146	20.455915	-1.317321	1.922092	2.383663	0.000000	0.231289	0.000000	0.000011	0.000000	0.000000	0.000000
40.527484	15.174547	18.562863	-1.797921	2.304886	2.502281	0.000000	0.300944	0.000000	0.000011	0.000000	0.000000	0.000000
41.076544	16.941189	16.435537	-1.400608	1.592470	2.646984	0.000000	0.225373	0.000000	0.000011	0.000000	0.000000	0.000000
41.625604	18.214293	15.024027	-0.904363	0.993482	2.749033	0.000000	0.145805	0.000000	0.000011	-0.000000	0.000000	0.000000
42.174664	18.903932	14.227791	-0.344238	0.465257	2.806620	0.000000	0.063650	0.000000	0.000011	-0.000001	0.000000	0.000000
42.723724	18.961394	13.990117	0.240202	-0.029828	2.818722	0.000000	-0.019633	0.000000	0.000010	-0.000001	0.000000	0.000000
43.022297	18.852413	13.992475	0.174345	-0.014620	2.815059	0.000000	-0.012269	0.000000	0.000010	-0.000001	0.000000	0.000000
43.502297	18.697634	14.022980	0.148110	-0.048932	2.809170	0.000000	-0.012269	0.000000	0.000010	-0.000001	0.000000	0.000000
43.982297	18.568042	14.086424	0.121875	-0.083243	2.803282	0.000000	-0.012269	0.000000	0.000009	-0.000001	0.000000	0.000000
44.462297	18.463634	14.182807	0.095640	-0.117555	2.797393	0.000000	-0.012269	0.000000	0.000009	-0.000001	0.000000	0.000000
44.942297	18.384412	14.312129	0.069405	-0.151866	2.791504	0.000000	-0.012269	0.000000	0.000008	-0.000001	0.000000	0.000000
45.423547	18.330495	14.474676	-0.047717	-0.114550	2.785617	0.000000	0.001532	0.000000	0.000008	-0.000001	0.000000	0.000000
45.720870	18.363704	14.548980	-0.111952	-0.097350	2.786073	0.000000	0.008811	0.000000	0.000008	-0.000001	0.000000	0.000000
46.269930	18.177432	14.937260	0.449199	-0.613997	2.768337	0.000000	-0.073323	0.000000	0.000007	-0.000001	0.000000	0.000000
46.818990	17.388805	15.913424	0.978620	-1.174378	2.705795	0.000000	-0.154157	0.000000	0.000006	-0.000001	0.000000	0.000000
47.368050	16.053528	17.547000	1.438917	-1.818408	2.599558	0.000000	-0.232256	0.000000	0.000006	-0.000001	0.000000	0.000000
47.917110	14.265916	19.954346	1.797576	-2.591959	2.451508	0.000000	-0.306236	0.000000	0.000005	-0.000002	0.000000	0.000000
48.363070	12.874823	22.094669	1.332798	-2.187226	2.330233	0.000000	-0.237933	0.000000	0.000004	-0.000002	0.000000	0.000000
48.804030	11.879613	23.808356	0.932682	-1.684249	2.239775	0.000000	-0.172737	0.000000	0.000003	-0.000001	0.000000	0.000000
49.244990	11.217220	25.042843	0.575177	-1.104641	2.177606	0.000000	-0.109508	0.000000	0.000003	-0.000001	0.000000	0.000000
49.685950	10.857382	25.741962	0.243951	-0.474773	2.143016	0.000000	-0.047526	0.000000	0.000002	-0.000001	0.000000	0.000000
50.128160	10.783784	25.873620	-0.049802	0.113199	2.135624	0.000000	0.008677	0.000000	0.000002	-0.000001	0.000000	0.000000
50.425482	10.821616	25.809767	-0.077442	0.101561	2.138204	0.000000	0.008677	0.000000	0.000001	-0.000001	0.000000	0.000000
50.758816	10.883573	25.746409	-0.108429	0.088513	2.141097	0.000000	0.008677	0.000000	0.000001	-0.000001	0.000000	0.000000
51.092149	10.966188	25.691750	-0.139416	0.075464	2.143990	0.000000	0.008677	0.000000	0.000000	-0.000001	0.000000	0.000000
51.426732	11.069663	25.646154	-0.080715	-0.145687	2.146872	0.000000	-0.008740	0.000000	-0.000000	-0.000001	0.000000	0.000000
51.724055	11.125698	25.736306	-0.080466	-0.220640	2.144274	0.000000	-0.013998	0.000000	-0.000000	-0.000001	0.000000	0.000000
52.165015	11.341934	25.644562	-0.411770	0.427904	2.151691	0.000000	0.047666	0.000000	-0.000001	-0.000001	0.000000	0.000000
52.605975	11.857514	24.987287	-0.761887	1.056979	2.186392	0.000000	0.109873	0.000000	-0.000002	-0.000001	0.000000	0.000000
53.046935	12.695994	23.794387	-1.146813	1.637961	2.248774	0.000000	0.173331	0.000000	-0.000002	-0.000001	0.000000	0.000000
53.487895	13.895680	22.120138	-1.584133	2.144418	2.339547	0.000000	0.238763	0.000000	-0.000003	-0.000001	0.000000	0.000000
53.933855	15.531950	20.015684	-2.098056	2.554643	2.461248	0.000000	0.307313	0.000000	-0.000003	-0.000001	0.000000	0.000000
54.482915	17.638610	17.647623	-1.716082	1.783752	2.609803	0.000000	0.233010	0.000000	-0.000004	-0.000001	0.000000	0.000000
55.031975	19.256368	16.051775	-1.212892	1.139913	2.716363	0.000000	0.154573	0.000000	-0.000005	-0.000001	0.000000	0.000000
55.581035	20.270954	15.114473	-0.624030	0.577267	2.779040	0.000000	0.073395	0.000000	-0.000005	-0.000001	0.000000	0.000000
56.130095	20.610702	14.768954	0.008911	0.055739	2.796721	0.000000	-0.009086	0.000000	-0.000006	-0.000001	0.000000	0.000000
56.428668	20.641874	14.718715	-0.059460	0.073934	2.796191	0.000000	-0.001778	0.000000	-0.000006	-0.000001	0.000000	0.000000
56.762001	20.686916	14.677016	-0.075665	0.051163	2.795599	0.000000	-0.001778	0.000000	-0.000007	-0.000001	0.000000	0.000000
57.095334	20.742761	14.650498	-0.091871	0.028392	2.795006	0.000000	-0.001778	0.000000	-0.000007	-0.000001	0.000000	0.000000
57.429918	20.809680	14.639146	-0.108137	0.005536	2.794412	0.000000	-0.001778	0.000000	-0.000007	-0.000001	0.000000	0.000000
57.727240	20.878281	14.641892	-0.177146	0.023484	2.793883	0.000000	0.005523	0.000000	-0.000007	-0.000001	0.000000	0.000000
58.276300	20.716631	14.897248	0.469815	-0.491307	2.774278	0.000000	-0.076835	0.000000	-0.000008	-0.000001	0.000000	0.000000
58.825360	19.858639	15.733691	1.083590	-1.041094	2.709761	0.000000	-0.157829	0.000000	-0.000008	-0.000000	0.000000	0.000000
59.374420	18.364910	17.210799	1.620827	-1.665035	2.601477	0.000000	-0.236024	0.000000	-0.000008	-0.000000	0.000000	0.000000
59.923480	16.340952	19.433784	2.043576	-2.407574	2.451348	0.000000	-0.310032	0.000000	-0.000008	0.000000	0.000000	0.000000
60.369440	14.756832	21.409581	1.521162	-2.004162	2.328375	0.000000	-0.241755	0.000000	-0.000008	-0.000000	0.000000	0.000000
60.810400	13.617475	22.965521	1.072450	-1.510938	2.236217	0.000000	-0.176629	0.000000	-0.000008	-0.000000	0.000000	0.000000
61.251360	12.850827	24.054384	0.672734	-0.948968	2.172307	0.000000	-0.113514	0.000000	-0.000009	-0.000001	0.000000	0.000000
61.692320	12.421862	24.626630	0.303754	-0.343820	2.135918	0.000000	-0.051692	0.000000	-0.000009	-0.000001	0.000000	0.000000
62.134530	12.311035	24.655679	-0.021258	0.216449	2.126639	0.000000	0.004325	0.000000	-0.000009	-0.000001	0.000000	0.000000
62.431853	12.330860	24.530722	-0.045419	0.203825	2.127925	0.000000	0.004325	0.000000	-0.000009	-0.000001	0.000000	0.000000
62.765186	12.370169	24.399556	-0.072508	0.189672	2.129367	0.000000	0.004325	0.000000	-0.000010	-0.000001	0.000000	0.000000
63.098520	12.427537	24.277826	-0.099596	0.175519	2.130810	0.000000	0.004325	0.000000	-0.000010	-0.000001	0.000000	0.000000
63.433103	12.503280	24.165127	-0.126786	0.161313	2.132257	0.000000	0.004325	0.000000	-0.000010	-0.000001	0.000000	0.000000
63.730426	12.585857	24.072956	-0.120080	0.089649	2.133543	0.000000	-0.000907	0.000000	-0.000011	-0.000001	0.000000	0.000000
64.171386	12.852047	23.728780	-0.485871	0.687897	2.146682	0.000000	0.060554	0.000000	-0.000011	-0.000001	0.000000	0.000000
64.612346	13.449368	22.868836	-0.873861	1.254846	2.187049	0.000000	0.122704	0.000000	-0.000012	-0.000001	0.000000	0.000000
65.053306	14.405110	21.532251	-1.301774	1.764701	2.255104	0.000000	0.186253	0.000000	-0.000012	-0.000002	0.000000	0.000000
65.494266	15.762937	19.779838	-1.789162	2.194263	2.351622	0.000000	0.251922	0.000000	-0.000013	-0.000002	0.000000	0.000000
65.940226	17.608046	17.666536	-2.362982	2.524741	2.479274	0.000000	0.320863	0.000000	-0.000014	-0.000002	0.000000	0.000000
66.489286	19.973356	15.302424	-1.919445	1.806420	2.635086	0.000000	0.245857	0.000000	-0.000016	-0.000002	0.000000	0.000000
67.038346	21.773823	13.652255	-1.340327	1.216766	2.748456	0.000000	0.166491	0.000000	-0.000017	-0.000001	0.000000	0.000000
67.587406	22.882272	12.598490	-0.666535	0.713779	2.817372	0.000000	0.084172	0.000000	-0.000017	-0.000001	0.000000	0.000000
68.136466	23.220407	12.066072	0.054337	0.261634	2.840613	0.000000	0.000360	0.000000	-0.000018	-0.000000	0.000000	0.000000
68.435038	23.228033	11.899033	-0.019202	0.266294	2.842937	0.000000	0.007783	0.000000	-0.000018	-0.000000	0.000000	0.000000
68.768372	23.245620	11.731504	-0.033557	0.236294	2.845531	0.000000	0.007783	0.000000	-0.000018	-0.000000	0.000000	0.000000
69.101705	23.272777	11.583975	-0.047913	0.206294	2.848126	0.000000	0.007783	0.000000	-0.000018	-0.000000	0.000000	0.000000
69.436288	23.309660	11.456005	-0.062323	0.176181	2.850730	0.000000	0.007783	0.000000	-0.000018	-0.000000	0.000000	0.000000
69.733611	23.350527	11.359196	-0.136148	0.179106	2.853044	0.000000	0.015238	0.000000	-0.000018	-0.000000	0.000000	0.000000
70.282671	23.098999	11.390013	0.591543	-0.235565	2.838232	0.000000	-0.069113	0.000000	-0.000018	0.000000	0.000000	0.000000
