#ParticleID	Turn	x[m]	xp	y[m]	yp	z[m]	dE[GeV]# s	beta_x	beta_y	alpha_x	alpha_y	D_x	D_y	D_px	D_py	orbit_x	orbit_px	orbit_y	orbit_py
0.300000	11.813470	25.020412	-0.010964	-0.027272	2.618053	0.000000	0.000036	0.000000	-0.000001	0.000001	0.000000	0.000000
0.601250	11.827759	25.040473	-0.036468	-0.039321	2.618063	0.000000	0.000036	0.000000	-0.000000	0.000001	0.000000	0.000000
0.898573	11.856928	25.067391	-0.032562	-0.112685	2.618073	0.000000	-0.006385	0.000000	-0.000000	0.000001	0.000000	0.000000
1.339533	12.037770	24.888704	-0.379103	0.516366	2.631550	0.000000	0.067572	0.000000	0.000000	0.000001	0.000000	0.000000
1.780493	12.530687	24.163525	-0.742964	1.121922	2.677778	0.000000	0.142298	0.000000	0.000001	0.000001	0.000000	0.000000
2.221453	13.358198	22.924849	-1.140768	1.676432	2.757282	0.000000	0.218644	0.000000	0.000002	0.000001	0.000000	0.000000
2.662413	14.558111	21.229034	-1.590692	2.154666	2.870969	0.000000	0.297481	0.000000	0.000002	0.000001	0.000000	0.000000
3.108373	16.205990	19.128370	-2.117578	2.535997	3.021994	0.000000	0.380196	0.000000	0.000003	0.000001	0.000000	0.000000
3.657433	18.319120	16.769011	-1.708271	1.786455	3.205472	0.000000	0.287158	0.000000	0.000003	0.000001	0.000000	0.000000
4.206493	19.913460	15.158454	-1.178301	1.164158	3.336391	0.000000	0.189026	0.000000	0.000004	0.000001	0.000000	0.000000
4.755553	20.876392	14.181983	-0.565101	0.624781	3.412428	0.000000	0.087541	0.000000	0.000005	0.000001	0.000000	0.000000
5.304613	21.139901	13.770045	0.088015	0.129907	3.432236	0.000000	-0.015496	0.000000	0.000005	0.000001	0.000000	0.000000
5.603185	21.124546	13.677641	0.018644	0.143604	3.430286	0.000000	-0.006528	0.000000	0.000005	0.000001	0.000000	0.000000
5.936519	21.117379	13.590196	0.002859	0.118731	3.428110	0.000000	-0.006528	0.000000	0.000006	0.000001	0.000000	0.000000
6.269852	21.120734	13.519333	-0.012926	0.093858	3.425934	0.000000	-0.006528	0.000000	0.000006	0.000001	0.000000	0.000000
6.604435	21.134685	13.464880	-0.028770	0.068891	3.423749	0.000000	-0.006528	0.000000	0.000006	0.000001	0.000000	0.000000
6.901758	21.155979	13.430511	-0.098123	0.081795	3.421808	0.000000	0.002412	0.000000	0.000007	0.000001	0.000000	0.000000
7.450818	20.903171	13.601514	0.555835	-0.395080	3.394929	0.000000	-0.100173	0.000000	0.000007	0.000001	0.000000	0.000000
7.999878	19.949648	14.308469	1.170532	-0.900095	3.312131	0.000000	-0.200981	0.000000	0.000007	0.000000	0.000000	0.000000
8.548938	18.362760	15.601732	1.702549	-1.469222	3.174882	0.000000	-0.298224	0.000000	0.000007	0.000000	0.000000	0.000000
9.097998	16.254598	17.573419	2.114306	-2.142998	2.985617	0.000000	-0.390178	0.000000	0.000008	-0.000000	0.000000	0.000000
9.543958	14.609853	19.330289	1.586908	-1.779874	2.829921	0.000000	-0.308467	0.000000	0.000008	0.000000	0.000000	0.000000
9.984918	13.413565	20.709956	1.136301	-1.337001	2.711146	0.000000	-0.230754	0.000000	0.000008	0.000000	0.000000	0.000000
10.425878	12.590369	21.670626	0.737607	-0.833295	2.626028	0.000000	-0.155669	0.000000	0.000008	0.000001	0.000000	0.000000
10.866838	12.102657	22.168588	0.372613	-0.291675	2.573598	0.000000	-0.082357	0.000000	0.000008	0.000001	0.000000	0.000000
11.309048	11.928011	22.180664	0.053786	0.208766	2.553237	0.000000	-0.016244	0.000000	0.000008	0.000001	0.000000	0.000000
11.606371	11.903460	22.060681	0.028788	0.194777	2.548407	0.000000	-0.016244	0.000000	0.000009	0.000001	0.000000	0.000000
12.086371	11.895196	21.884535	-0.011570	0.172193	2.540609	0.000000	-0.016244	0.000000	0.000009	0.000001	0.000000	0.000000
12.566371	11.925675	21.730070	-0.051928	0.149610	2.532811	0.000000	-0.016244	0.000000	0.000010	0.000001	0.000000	0.000000
13.046371	11.994898	21.597284	-0.092286	0.127026	2.525014	0.000000	-0.016244	0.000000	0.000010	0.000001	0.000000	0.000000
13.526371	12.102864	21.486179	-0.132644	0.104443	2.517216	0.000000	-0.016244	0.000000	0.000011	0.000001	0.000000	0.000000
14.007621	12.250006	21.396550	-0.173107	0.081800	2.509398	0.000000	-0.016244	0.000000	0.000011	0.000001	0.000000	0.000000
14.304943	12.360376	21.352067	-0.167797	0.015456	2.504568	0.000000	-0.022386	0.000000	0.000011	0.000001	0.000000	0.000000
14.745903	12.666898	21.104738	-0.529963	0.543297	2.510329	0.000000	0.048545	0.000000	0.000012	0.000001	0.000000	0.000000
15.186863	13.302250	20.401060	-0.916342	1.046418	2.547461	0.000000	0.120029	0.000000	0.000012	0.000002	0.000000	0.000000
15.627823	14.295461	19.273049	-1.344585	1.501928	2.616385	0.000000	0.192880	0.000000	0.000013	0.000002	0.000000	0.000000
16.068783	15.691907	17.772028	-1.834259	1.889102	2.717886	0.000000	0.267927	0.000000	0.000014	0.000002	0.000000	0.000000
16.514743	17.579045	15.944791	-2.412492	2.191067	2.854816	0.000000	0.346489	0.000000	0.000015	0.000003	0.000000	0.000000
17.063803	20.002810	13.904511	-1.975765	1.546817	3.021323	0.000000	0.259142	0.000000	0.000016	0.000002	0.000000	0.000000
17.612863	21.867058	12.507406	-1.399479	1.012742	3.138538	0.000000	0.167199	0.000000	0.000017	0.000002	0.000000	0.000000
18.161923	23.040108	11.653963	-0.724341	0.550803	3.204381	0.000000	0.072290	0.000000	0.000018	0.000001	0.000000	0.000000
18.710983	23.439100	11.283394	0.001961	0.128097	3.217685	0.000000	-0.023901	0.000000	0.000018	0.000000	0.000000	0.000000
19.009556	23.478310	11.197396	-0.072055	0.130455	3.213059	0.000000	-0.015495	0.000000	0.000018	0.000000	0.000000	0.000000
19.342889	23.531104	11.120518	-0.086326	0.100180	3.207893	0.000000	-0.015495	0.000000	0.000019	0.000000	0.000000	0.000000
19.676223	23.593412	11.063823	-0.100597	0.069904	3.202728	0.000000	-0.015495	0.000000	0.000019	0.000000	0.000000	0.000000
20.010806	23.665814	11.027076	-0.232175	0.094150	3.197564	0.000000	0.000348	0.000000	0.000019	0.000000	0.000000	0.000000
20.308129	23.807813	10.979178	-0.307612	0.095631	3.197667	0.000000	0.008701	0.000000	0.000019	0.000001	0.000000	0.000000
20.857189	23.734980	11.096299	0.439476	-0.310203	3.176220	0.000000	-0.086709	0.000000	0.000019	-0.000000	0.000000	0.000000
21.406249	22.854017	11.668520	1.155520	-0.738131	3.102732	0.000000	-0.180582	0.000000	0.000019	-0.000001	0.000000	0.000000
21.955309	21.227148	12.736598	1.789945	-1.218635	2.978509	0.000000	-0.271251	0.000000	0.000018	-0.000001	0.000000	0.000000
22.504369	18.969289	14.376609	2.297937	-1.785939	2.805751	0.000000	-0.357109	0.000000	0.000018	-0.000002	0.000000	0.000000
22.950329	17.189873	15.849049	1.706227	-1.501863	2.663792	0.000000	-0.279886	0.000000	0.000017	-0.000001	0.000000	0.000000
23.391289	15.914431	17.023018	1.197166	-1.150308	2.556699	0.000000	-0.206305	0.000000	0.000016	-0.000001	0.000000	0.000000
23.832249	15.062217	17.862591	0.742800	-0.746414	2.481504	0.000000	-0.135074	0.000000	0.000016	-0.000001	0.000000	0.000000
24.273209	14.594294	18.329569	0.322371	-0.308559	2.437350	0.000000	-0.065381	0.000000	0.000016	-0.000000	0.000000	0.000000
24.715418	14.489404	18.402459	-0.047890	0.098144	2.423732	0.000000	-0.002375	0.000000	0.000016	0.000000	0.000000	0.000000
25.012741	14.523997	18.348948	-0.068457	0.081832	2.423025	0.000000	-0.002375	0.000000	0.000016	0.000000	0.000000	0.000000
25.346075	14.577321	18.300489	-0.091515	0.063544	2.422234	0.000000	-0.002375	0.000000	0.000016	0.000000	0.000000	0.000000
25.679408	14.646017	18.264223	-0.114573	0.045256	2.421442	0.000000	-0.002375	0.000000	0.000016	0.000000	0.000000	0.000000
26.013991	14.730130	18.240450	-0.018217	-0.121076	2.420622	0.000000	-0.022013	0.000000	0.000016	0.000000	0.000000	0.000000
26.311314	14.746966	18.317365	-0.002250	-0.182528	2.414077	0.000000	-0.027932	0.000000	0.000016	0.000000	0.000000	0.000000
26.752274	14.930638	18.279688	-0.415857	0.267647	2.416874	0.000000	0.040628	0.000000	0.000016	0.000000	0.000000	0.000000
27.193234	15.486046	17.848866	-0.848464	0.705644	2.449975	0.000000	0.109650	0.000000	0.000016	0.000001	0.000000	0.000000
27.634194	16.438565	17.044502	-1.319834	1.111534	2.513759	0.000000	0.179921	0.000000	0.000017	0.000001	0.000000	0.000000
28.075154	17.831714	15.903194	-1.851504	1.466851	2.608951	0.000000	0.252242	0.000000	0.000017	0.000002	0.000000	0.000000
28.521114	19.753343	14.459678	-2.472731	1.756339	2.738240	0.000000	0.327879	0.000000	0.000018	0.000002	0.000000	0.000000
29.070174	22.195749	12.851329	-1.949273	1.190229	2.895594	0.000000	0.244458	0.000000	0.000019	0.000002	0.000000	0.000000
29.619234	23.983862	11.814714	-1.288129	0.708896	3.005885	0.000000	0.156701	0.000000	0.000020	0.000001	0.000000	0.000000
30.168294	24.991381	11.275997	-0.535997	0.278057	3.067158	0.000000	0.066164	0.000000	0.000020	0.000000	0.000000	0.000000
30.717354	25.147139	11.196807	0.253995	-0.132977	3.078326	0.000000	-0.025546	0.000000	0.000020	-0.000000	0.000000	0.000000
31.015927	25.038366	11.266794	0.176008	-0.130680	3.073099	0.000000	-0.017504	0.000000	0.000020	-0.000000	0.000000	0.000000
31.349260	24.925603	11.363944	0.162282	-0.160770	3.067265	0.000000	-0.017504	0.000000	0.000020	-0.000000	0.000000	0.000000
31.682593	24.821989	11.481154	0.148557	-0.190861	3.061430	0.000000	-0.017504	0.000000	0.000020	-0.000000	0.000000	0.000000
32.017177	24.727189	11.618978	0.134780	-0.221065	3.055573	0.000000	-0.017504	0.000000	0.000020	-0.000000	0.000000	0.000000
32.314499	24.650683	11.758413	0.058141	-0.217187	3.050369	0.000000	-0.009536	0.000000	0.000020	-0.000000	0.000000	0.000000
32.863559	24.164489	12.236120	0.822120	-0.657995	3.020245	0.000000	-0.100033	0.000000	0.000020	-0.000001	0.000000	0.000000
33.412619	22.866432	13.220629	1.528028	-1.145670	2.940848	0.000000	-0.188756	0.000000	0.000019	-0.000002	0.000000	0.000000
33.961679	20.848201	14.782064	2.126004	-1.714948	2.813585	0.000000	-0.274131	0.000000	0.000018	-0.000002	0.000000	0.000000
34.510739	18.252353	17.031642	2.573809	-2.406379	2.640715	0.000000	-0.354643	0.000000	0.000017	-0.000003	0.000000	0.000000
34.956699	16.233970	19.043811	1.968335	-2.086776	2.498904	0.000000	-0.281699	0.000000	0.000015	-0.000002	0.000000	0.000000
35.397659	14.728889	20.708042	1.457803	-1.672971	2.390071	0.000000	-0.212391	0.000000	0.000014	-0.000002	0.000000	0.000000
35.838619	13.643097	21.972243	1.013873	-1.183047	2.311239	0.000000	-0.145503	0.000000	0.000014	-0.000002	0.000000	0.000000
36.279579	12.926988	22.778892	0.616265	-0.639295	2.261508	0.000000	-0.080271	0.000000	0.000013	-0.000001	0.000000	0.000000
36.721789	12.547149	23.091597	0.277472	-0.123131	2.240286	0.000000	-0.021447	0.000000	0.000013	-0.000001	0.000000	0.000000
37.019112	12.389740	23.168703	0.251951	-0.136202	2.233910	0.000000	-0.021447	0.000000	0.000012	-0.000001	0.000000	0.000000
37.352445	12.231310	23.264389	0.223339	-0.150856	2.226761	0.000000	-0.021447	0.000000	0.000012	-0.000001	0.000000	0.000000
37.685779	12.091954	23.369844	0.194728	-0.165510	2.219612	0.000000	-0.021447	0.000000	0.000012	-0.000001	0.000000	0.000000
38.020362	11.971258	23.485519	0.166008	-0.180219	2.212437	0.000000	-0.021447	0.000000	0.000012	-0.000001	0.000000	0.000000
38.317684	11.880130	23.596572	0.169618	-0.251150	2.206060	0.000000	-0.026856	0.000000	0.000011	-0.000001	0.000000	0.000000
38.758644	11.881998	23.556704	-0.173870	0.341219	2.208148	0.000000	0.036332	0.000000	0.000011	-0.000001	0.000000	0.000000
39.199604	12.189140	22.999290	-0.525303	0.918062	2.238163	0.000000	0.099933	0.000000	0.000011	-0.000000	0.000000	0.000000
39.640564	12.815589	21.949693	-0.900735	1.453134	2.296448	0.000000	0.164673	0.000000	0.000011	-0.000000	0.000000	0.000000
40.081524	13.789965	20.455669	-1.317318	1.922090	2.383667	0.000000	0.231289	0.000000	0.000011	0.000000	0.000000	0.000000
40.527484	15.174361	18.562622	-1.797914	2.304876	2.502285	0.000000	0.300944	0.000000	0.000011	0.000000	0.000000	0.000000
41.076544	16.941000	16.435304	-1.400608	1.592466	2.646987	0.000000	0.225373	0.000000	0.000011	0.000000	0.000000	0.000000
41.625604	18.214107	15.023793	-0.904370	0.993485	2.749037	0.000000	0.145805	0.000000	0.000011	-0.000000	0.000000	0.000000
42.174664	18.903758	14.227551	-0.344252	0.465266	2.806624	0.000000	0.063650	0.000000	0.000011	-0.000001	0.000000	0.000000
42.723724	18.961239	13.989863	0.240182	-0.029812	2.818726	0.000000	-0.019634	0.000000	0.000010	-0.000001	0.000000	0.000000
43.022297	18.852269	13.992212	0.174326	-0.014605	2.815063	0.000000	-0.012269	0.000000	0.000010	-0.000001	0.000000	0.000000
43.502297	18.697509	14.022703	0.148091	-0.048917	2.809174	0.000000	-0.012269	0.000000	0.000010	-0.000001	0.000000	0.000000
43.982297	18.567934	14.086133	0.121856	-0.083229	2.803285	0.000000	-0.012269	0.000000	0.000009	-0.000001	0.000000	0.000000
44.462297	18.463545	14.182503	0.095621	-0.117541	2.797396	0.000000	-0.012269	0.000000	0.000009	-0.000001	0.000000	0.000000
44.942297	18.384342	14.311812	0.069386	-0.151853	2.791507	0.000000	-0.012269	0.000000	0.000008	-0.000001	0.000000	0.000000
45.423547	18.330443	14.474347	-0.047736	-0.114540	2.785620	0.000000	0.001532	0.000000	0.000008	-0.000001	0.000000	0.000000
45.720870	18.363663	14.548645	-0.111971	-0.097341	2.786076	0.000000	0.008811	0.000000	0.000008	-0.000001	0.000000	0.000000
46.269930	18.177412	14.936910	0.449179	-0.613978	2.768340	0.000000	-0.073323	0.000000	0.000007	-0.000001	0.000000	0.000000
46.818990	17.388807	15.913046	0.978601	-1.174347	2.705798	0.000000	-0.154157	0.000000	0.000007	-0.000001	0.000000	0.000000
47.368050	16.053549	17.546581	1.438900	-1.818363	2.599560	0.000000	-0.232257	0.000000	0.000006	-0.000001	0.000000	0.000000
47.917110	14.265955	19.953868	1.797562	-2.591896	2.451510	0.000000	-0.306237	0.000000	0.000005	-0.000002	0.000000	0.000000
48.363070	12.874875	22.094139	1.332785	-2.187174	2.330235	0.000000	-0.237933	0.000000	0.000004	-0.000002	0.000000	0.000000
48.804030	11.879676	23.807786	0.932668	-1.684211	2.239777	0.000000	-0.172737	0.000000	0.000004	-0.000001	0.000000	0.000000
49.244990	11.217295	25.042245	0.575163	-1.104617	2.177607	0.000000	-0.109508	0.000000	0.000003	-0.000001	0.000000	0.000000
49.685950	10.857470	25.741350	0.243935	-0.474765	2.143018	0.000000	-0.047527	0.000000	0.000002	-0.000001	0.000000	0.000000
50.128160	10.783886	25.873008	-0.049819	0.113193	2.135625	0.000000	0.008677	0.000000	0.000002	-0.000001	0.000000	0.000000
50.425482	10.821729	25.809159	-0.077459	0.101554	2.138205	0.000000	0.008677	0.000000	0.000001	-0.000001	0.000000	0.000000
50.758816	10.883697	25.745806	-0.108446	0.088505	2.141098	0.000000	0.008677	0.000000	0.000001	-0.000001	0.000000	0.000000
51.092149	10.966323	25.691152	-0.139433	0.075457	2.143991	0.000000	0.008677	0.000000	0.000001	-0.000001	0.000000	0.000000
51.426732	11.069809	25.645561	-0.080731	-0.145690	2.146872	0.000000	-0.008740	0.000000	0.000000	-0.000001	0.000000	0.000000
51.724055	11.125853	25.735715	-0.080480	-0.220642	2.144274	0.000000	-0.013998	0.000000	-0.000000	-0.000001	0.000000	0.000000
52.165015	11.342103	25.643979	-0.411789	0.427887	2.151691	0.000000	0.047666	0.000000	-0.000001	-0.000001	0.000000	0.000000
52.605975	11.857702	24.986726	-0.761911	1.056947	2.186392	0.000000	0.109872	0.000000	-0.000001	-0.000001	0.000000	0.000000
53.046935	12.696204	23.793860	-1.146842	1.637916	2.248774	0.000000	0.173330	0.000000	-0.000002	-0.000001	0.000000	0.000000
53.487895	13.895919	22.119656	-1.584169	2.144362	2.339546	0.000000	0.238763	0.000000	-0.000003	-0.000001	0.000000	0.000000
53.933855	15.532225	20.015257	-2.098101	2.554578	2.461248	0.000000	0.307313	0.000000	-0.000003	-0.000001	0.000000	0.000000
54.482915	17.638930	17.647258	-1.716119	1.783703	2.609802	0.000000	0.233009	0.000000	-0.000004	-0.000001	0.000000	0.000000
55.031975	19.256725	16.051457	-1.212920	1.139877	2.716362	0.000000	0.154573	0.000000	-0.000005	-0.000001	0.000000	0.000000
55.581035	20.271335	15.114189	-0.624046	0.577242	2.779039	0.000000	0.073394	0.000000	-0.000005	-0.000001	0.000000	0.000000
56.130095	20.611093	14.768693	0.008908	0.055722	2.796720	0.000000	-0.009086	0.000000	-0.000006	-0.000001	0.000000	0.000000
56.428668	20.642268	14.718465	-0.059463	0.073916	2.796189	0.000000	-0.001778	0.000000	-0.000006	-0.000001	0.000000	0.000000
56.762001	20.687312	14.676778	-0.075669	0.051145	2.795597	0.000000	-0.001778	0.000000	-0.000006	-0.000001	0.000000	0.000000
57.095334	20.743159	14.650272	-0.091874	0.028374	2.795005	0.000000	-0.001778	0.000000	-0.000007	-0.000001	0.000000	0.000000
57.429918	20.810080	14.638933	-0.108140	0.005517	2.794410	0.000000	-0.001778	0.000000	-0.000007	-0.000001	0.000000	0.000000
57.727240	20.878683	14.641691	-0.177150	0.023464	2.793882	0.000000	0.005522	0.000000	-0.000007	-0.000001	0.000000	0.000000
58.276300	20.717029	14.897065	0.469825	-0.491322	2.774276	0.000000	-0.076835	0.000000	-0.000008	-0.000001	0.000000	0.000000
58.825360	19.859020	15.733522	1.083613	-1.041104	2.709759	0.000000	-0.157829	0.000000	-0.000008	-0.000000	0.000000	0.000000
59.374420	18.365259	17.210640	1.620860	-1.665042	2.601475	0.000000	-0.236024	0.000000	-0.000008	-0.000000	0.000000	0.000000
59.923480	16.341260	19.433630	2.043618	-2.407577	2.451345	0.000000	-0.310032	0.000000	-0.000008	0.000000	0.000000	0.000000
60.369440	14.757105	21.409433	1.521196	-2.004171	2.328372	0.000000	-0.241755	0.000000	-0.000008	-0.000000	0.000000	0.000000
60.810400	13.617722	22.965383	1.072476	-1.510952	2.236215	0.000000	-0.176629	0.000000	-0.000008	-0.000000	0.000000	0.000000
61.251360	12.851054	24.054261	0.672754	-0.948986	2.172305	0.000000	-0.113514	0.000000	-0.000008	-0.000001	0.000000	0.000000
61.692320	12.422075	24.626524	0.303768	-0.343842	2.135915	0.000000	-0.051692	0.000000	-0.000009	-0.000001	0.000000	0.000000
62.134530	12.311238	24.655594	-0.021248	0.216425	2.126636	0.000000	0.004325	0.000000	-0.000009	-0.000001	0.000000	0.000000
62.431853	12.331057	24.530652	-0.045409	0.203801	2.127923	0.000000	0.004325	0.000000	-0.000009	-0.000001	0.000000	0.000000
62.765186	12.370359	24.399502	-0.072497	0.189648	2.129365	0.000000	0.004325	0.000000	-0.000010	-0.000001	0.000000	0.000000
63.098520	12.427720	24.277788	-0.099585	0.175495	2.130807	0.000000	0.004325	0.000000	-0.000010	-0.000001	0.000000	0.000000
63.433103	12.503456	24.165106	-0.126774	0.161289	2.132254	0.000000	0.004325	0.000000	-0.000010	-0.000001	0.000000	0.000000
63.730426	12.586025	24.072949	-0.120068	0.089625	2.133540	0.000000	-0.000907	0.000000	-0.000011	-0.000001	0.000000	0.000000
64.171386	12.852206	23.728794	-0.485863	0.687873	2.146679	0.000000	0.060553	0.000000	-0.000011	-0.000001	0.000000	0.000000
64.612346	13.449521	22.868870	-0.873855	1.254824	2.187046	0.000000	0.122704	0.000000	-0.000012	-0.000001	0.000000	0.000000
65.053306	14.405259	21.532303	-1.301771	1.764681	2.255100	0.000000	0.186252	0.000000	-0.000012	-0.000002	0.000000	0.000000
65.494266	15.763085	19.779906	-1.789162	2.194247	2.351618	0.000000	0.251921	0.000000	-0.000013	-0.000002	0.000000	0.000000
65.940226	17.608195	17.666616	-2.362985	2.524729	2.479269	0.000000	0.320862	0.000000	-0.000014	-0.000002	0.000000	0.000000
66.489286	19.973505	15.302518	-1.919441	1.806408	2.635081	0.000000	0.245857	0.000000	-0.000015	-0.000002	0.000000	0.000000
67.038346	21.773965	13.652362	-1.340318	1.216753	2.748451	0.000000	0.166491	0.000000	-0.000016	-0.000001	0.000000	0.000000
67.587406	22.882401	12.598612	-0.666521	0.713765	2.817367	0.000000	0.084172	0.000000	-0.000017	-0.000001	0.000000	0.000000
68.136466	23.220517	12.066212	0.054356	0.261616	2.840608	0.000000	0.000360	0.000000	-0.000017	-0.000000	0.000000	0.000000
68.435038	23.228133	11.899184	-0.019183	0.266277	2.842932	0.000000	0.007783	0.000000	-0.000018	-0.000000	0.000000	0.000000
68.768372	23.245707	11.731666	-0.033539	0.236277	2.845526	0.000000	0.007783	0.000000	-0.000018	-0.000000	0.000000	0.000000
69.101705	23.272851	11.584147	-0.047894	0.206278	2.848121	0.000000	0.007783	0.000000	-0.000018	-0.000000	0.000000	0.000000
69.436288	23.309722	11.456188	-0.062304	0.176166	2.850725	0.000000	0.007783	0.000000	-0.000018	-0.000000	0.000000	0.000000
69.733611	23.350577	11.359387	-0.136129	0.179092	2.853039	0.000000	0.015238	0.000000	-0.000018	-0.000000	0.000000	0.000000
70.282671	23.099028	11.390223	0.591563	-0.235584	2.838227	0.000000	-0.069113	0.000000	-0.000018	0.000000	0.000000	0.000000
