#ParticleID	Turn	x[m]	xp	y[m]	yp	z[m]	dE[GeV]# s	beta_x	beta_y	alpha_x	alpha_y	D_x	D_y	D_px	D_py	orbit_x	orbit_px	orbit_y	orbit_py
0.300000	11.803057	25.060543	-0.010024	-0.026761	2.618315	0.000000	-0.000063	0.000000	-0.000003	0.000002	0.000000	0.000000
0.601250	11.816786	25.080291	-0.035550	-0.038790	2.618295	0.000000	-0.000063	0.000000	-0.000002	0.000002	0.000000	0.000000
0.898573	11.845416	25.106887	-0.031694	-0.112232	2.618276	0.000000	-0.006484	0.000000	-0.000001	0.000002	0.000000	0.000000
1.339533	12.025370	24.927342	-0.377950	0.517853	2.631710	0.000000	0.067477	0.000000	-0.000001	0.000002	0.000000	0.000000
1.780493	12.517126	24.200418	-0.741473	1.124376	2.677896	0.000000	0.142206	0.000000	0.000000	0.000002	0.000000	0.000000
2.221453	13.343150	22.959191	-1.138872	1.679741	2.757360	0.000000	0.218555	0.000000	0.000001	0.000002	0.000000	0.000000
2.662413	14.541180	21.260136	-1.588303	2.158679	2.871008	0.000000	0.297394	0.000000	0.000002	0.000002	0.000000	0.000000
3.108373	16.186668	19.155644	-2.114584	2.540533	3.021994	0.000000	0.380109	0.000000	0.000003	0.000002	0.000000	0.000000
3.657433	18.296777	16.791927	-1.705795	1.789902	3.205424	0.000000	0.287071	0.000000	0.000004	0.000002	0.000000	0.000000
4.206493	19.888763	15.178067	-1.176517	1.166762	3.336295	0.000000	0.188942	0.000000	0.000005	0.000002	0.000000	0.000000
4.755553	20.850178	14.199112	-0.564136	0.626728	3.412287	0.000000	0.087461	0.000000	0.000006	0.000002	0.000000	0.000000
5.304613	21.113111	13.785334	0.088093	0.131334	3.432052	0.000000	-0.015571	0.000000	0.000007	0.000001	0.000000	0.000000
5.603185	21.097673	13.692049	0.018775	0.145085	3.430080	0.000000	-0.006604	0.000000	0.000007	0.000001	0.000000	0.000000
5.936519	21.090425	13.603612	0.002970	0.120227	3.427878	0.000000	-0.006604	0.000000	0.000008	0.000001	0.000000	0.000000
6.269852	21.093713	13.531746	-0.012835	0.095370	3.425676	0.000000	-0.006604	0.000000	0.000008	0.000001	0.000000	0.000000
6.604435	21.107610	13.476276	-0.028700	0.070419	3.423466	0.000000	-0.006604	0.000000	0.000009	0.000001	0.000000	0.000000
6.901758	21.128868	13.440994	-0.097999	0.083364	3.421503	0.000000	0.002335	0.000000	0.000009	0.000001	0.000000	0.000000
7.450818	20.876423	13.610428	0.555056	-0.393775	3.394585	0.000000	-0.100239	0.000000	0.000010	0.000001	0.000000	0.000000
7.999878	19.924229	14.316053	1.168904	-0.898962	3.311753	0.000000	-0.201035	0.000000	0.000010	0.000001	0.000000	0.000000
8.548938	18.339546	15.608129	1.700187	-1.468179	3.174478	0.000000	-0.298266	0.000000	0.000011	0.000000	0.000000	0.000000
9.097998	16.234306	17.578687	2.111377	-2.141972	2.985193	0.000000	-0.390206	0.000000	0.000011	0.000000	0.000000	0.000000
9.543958	14.591889	19.334520	1.584596	-1.778583	2.829482	0.000000	-0.308507	0.000000	0.000011	0.000000	0.000000	0.000000
9.984918	13.397411	20.712954	1.134494	-1.335506	2.710687	0.000000	-0.230805	0.000000	0.000011	0.000001	0.000000	0.000000
10.425878	12.575617	21.672240	0.736224	-0.831664	2.625544	0.000000	-0.155732	0.000000	0.000011	0.000001	0.000000	0.000000
10.866838	12.088962	22.168730	0.371589	-0.289982	2.573083	0.000000	-0.082433	0.000000	0.000012	0.000001	0.000000	0.000000
11.309048	11.915079	22.179310	0.053043	0.210449	2.552686	0.000000	-0.016332	0.000000	0.000013	0.000002	0.000000	0.000000
11.606371	11.890978	22.058330	0.028019	0.196450	2.547829	0.000000	-0.016332	0.000000	0.000013	0.000002	0.000000	0.000000
12.086371	11.883470	21.880586	-0.012379	0.173849	2.539989	0.000000	-0.016332	0.000000	0.000014	0.000002	0.000000	0.000000
12.566371	11.914745	21.724539	-0.052777	0.151249	2.532149	0.000000	-0.016332	0.000000	0.000015	0.000002	0.000000	0.000000
13.046371	11.984803	21.590188	-0.093176	0.128649	2.524308	0.000000	-0.016332	0.000000	0.000015	0.000002	0.000000	0.000000
13.526371	12.093643	21.477533	-0.133574	0.106049	2.516468	0.000000	-0.016332	0.000000	0.000016	0.000002	0.000000	0.000000
14.007621	12.241701	21.386366	-0.174078	0.083389	2.508608	0.000000	-0.016332	0.000000	0.000017	0.000002	0.000000	0.000000
14.304943	12.352656	21.340941	-0.168814	0.017065	2.503751	0.000000	-0.022471	0.000000	0.000017	0.000002	0.000000	0.000000
14.745903	12.660009	21.092336	-0.530838	0.544572	2.509470	0.000000	0.048438	0.000000	0.000018	0.000002	0.000000	0.000000
15.186863	13.296085	20.387702	-0.917115	1.047301	2.546549	0.000000	0.119899	0.000000	0.000019	0.000002	0.000000	0.000000
15.627823	14.289946	19.259100	-1.345291	1.502379	2.615409	0.000000	0.192725	0.000000	0.000020	0.000003	0.000000	0.000000
16.068783	15.686998	17.757881	-1.834931	1.889099	2.716836	0.000000	0.267747	0.000000	0.000022	0.000004	0.000000	0.000000
16.514743	17.574732	15.930850	-2.413162	2.190609	2.853679	0.000000	0.346280	0.000000	0.000023	0.000004	0.000000	0.000000
17.063803	19.999384	13.890890	-1.976700	1.546690	3.020082	0.000000	0.258972	0.000000	0.000025	0.000003	0.000000	0.000000
17.612863	21.864775	12.493747	-1.400613	1.012938	3.137214	0.000000	0.167070	0.000000	0.000027	0.000002	0.000000	0.000000
18.161923	23.039143	11.639907	-0.725594	0.551336	3.202998	0.000000	0.072205	0.000000	0.000028	0.000002	0.000000	0.000000
18.710983	23.439537	11.268552	0.000677	0.129004	3.216267	0.000000	-0.023940	0.000000	0.000029	0.000001	0.000000	0.000000
19.009556	23.479512	11.182050	-0.073336	0.131278	3.211628	0.000000	-0.015539	0.000000	0.000029	0.000001	0.000000	0.000000
19.342889	23.533161	11.104639	-0.087609	0.100954	3.206448	0.000000	-0.015539	0.000000	0.000029	0.000001	0.000000	0.000000
19.676223	23.596325	11.047444	-0.101882	0.070631	3.201268	0.000000	-0.015539	0.000000	0.000029	0.000001	0.000000	0.000000
20.010806	23.669587	11.010228	-0.233481	0.094745	3.196089	0.000000	0.000297	0.000000	0.000030	0.000001	0.000000	0.000000
20.308129	23.812364	10.961989	-0.308929	0.096133	3.196176	0.000000	0.008645	0.000000	0.000030	0.000001	0.000000	0.000000
20.857189	23.740889	11.078293	0.438337	-0.309206	3.174712	0.000000	-0.086716	0.000000	0.000030	-0.000000	0.000000	0.000000
21.406249	22.861040	11.649117	1.154640	-0.736570	3.101234	0.000000	-0.180540	0.000000	0.000030	-0.000001	0.000000	0.000000
21.955309	21.234966	12.715122	1.789386	-1.216398	2.977046	0.000000	-0.271162	0.000000	0.000029	-0.000002	0.000000	0.000000
22.504369	18.977525	14.352236	2.297738	-1.782867	2.804351	0.000000	-0.356973	0.000000	0.000028	-0.000003	0.000000	0.000000
22.950329	17.198344	15.822186	1.705894	-1.499373	2.662445	0.000000	-0.279786	0.000000	0.000027	-0.000002	0.000000	0.000000
23.391289	15.923260	16.994257	1.196684	-1.148511	2.555389	0.000000	-0.206239	0.000000	0.000026	-0.000001	0.000000	0.000000
23.832249	15.071543	17.832583	0.742148	-0.745392	2.480216	0.000000	-0.135041	0.000000	0.000025	-0.000001	0.000000	0.000000
24.273209	14.604281	18.299019	0.321518	-0.308358	2.436069	0.000000	-0.065381	0.000000	0.000025	-0.000000	0.000000	0.000000
24.715418	14.500249	18.372100	-0.048959	0.097594	2.422442	0.000000	-0.002406	0.000000	0.000025	0.000000	0.000000	0.000000
25.012741	14.535474	18.318924	-0.069513	0.081256	2.421727	0.000000	-0.002406	0.000000	0.000025	0.000000	0.000000	0.000000
25.346075	14.589496	18.270858	-0.092556	0.062940	2.420925	0.000000	-0.002406	0.000000	0.000025	0.000000	0.000000	0.000000
25.679408	14.658881	18.235004	-0.115599	0.044624	2.420123	0.000000	-0.002406	0.000000	0.000025	0.000000	0.000000	0.000000
26.013991	14.743676	18.211664	-0.019118	-0.121503	2.419293	0.000000	-0.022032	0.000000	0.000026	0.000000	0.000000	0.000000
26.311314	14.761043	18.288841	-0.003102	-0.182909	2.412743	0.000000	-0.027948	0.000000	0.000026	0.000000	0.000000	0.000000
26.752274	14.945620	18.251840	-0.417066	0.266499	2.415524	0.000000	0.040577	0.000000	0.000026	0.000001	0.000000	0.000000
27.193234	15.502272	17.822350	-0.850085	0.703782	2.448596	0.000000	0.109565	0.000000	0.000026	0.000001	0.000000	0.000000
27.634194	16.456430	17.019912	-1.321942	1.109044	2.512333	0.000000	0.179800	0.000000	0.000027	0.000002	0.000000	0.000000
28.075154	17.851686	15.881037	-1.854194	1.463844	2.607463	0.000000	0.252083	0.000000	0.000028	0.000003	0.000000	0.000000
28.521114	19.776024	14.440384	-2.476133	1.752953	2.736672	0.000000	0.327680	0.000000	0.000030	0.000004	0.000000	0.000000
29.070174	22.221852	12.835318	-1.952068	1.187599	2.893931	0.000000	0.244311	0.000000	0.000031	0.000003	0.000000	0.000000
29.619234	24.012609	11.801263	-1.290118	0.706835	3.004156	0.000000	0.156609	0.000000	0.000032	0.000002	0.000000	0.000000
30.168294	25.021803	11.264565	-0.537040	0.276418	3.065395	0.000000	0.066129	0.000000	0.000033	0.000001	0.000000	0.000000
30.717354	25.178151	11.186997	0.253971	-0.134310	3.076558	0.000000	-0.025524	0.000000	0.000033	-0.000001	0.000000	0.000000
31.015927	25.069432	11.257807	0.175925	-0.132073	3.071337	0.000000	-0.017488	0.000000	0.000033	-0.000000	0.000000	0.000000
31.349260	24.956718	11.355898	0.162217	-0.162198	3.065508	0.000000	-0.017488	0.000000	0.000033	-0.000000	0.000000	0.000000
31.682593	24.853142	11.474072	0.148509	-0.192324	3.059679	0.000000	-0.017488	0.000000	0.000033	-0.000000	0.000000	0.000000
32.017177	24.758368	11.612886	0.134750	-0.222563	3.053828	0.000000	-0.017488	0.000000	0.000032	-0.000000	0.000000	0.000000
32.314499	24.681875	11.753221	0.058051	-0.218733	3.048629	0.000000	-0.009524	0.000000	0.000032	-0.000000	0.000000	0.000000
32.863559	24.195211	12.232583	0.823059	-0.659480	3.018527	0.000000	-0.099965	0.000000	0.000032	-0.000001	0.000000	0.000000
33.412619	22.895584	13.218739	1.529930	-1.147200	2.939182	0.000000	-0.188634	0.000000	0.000031	-0.000002	0.000000	0.000000
33.961679	20.874795	14.781929	2.128734	-1.716633	2.812002	0.000000	-0.273956	0.000000	0.000029	-0.000003	0.000000	0.000000
34.510739	18.275580	17.033496	2.577174	-2.408338	2.639242	0.000000	-0.354419	0.000000	0.000027	-0.000004	0.000000	0.000000
34.956699	16.254524	19.047479	1.970983	-2.088867	2.497523	0.000000	-0.281512	0.000000	0.000025	-0.000004	0.000000	0.000000
35.397659	14.747376	20.713578	1.459860	-1.675097	2.388766	0.000000	-0.212239	0.000000	0.000024	-0.000003	0.000000	0.000000
35.838619	13.659995	21.979634	1.015434	-1.185112	2.309994	0.000000	-0.145383	0.000000	0.000023	-0.000002	0.000000	0.000000
36.279579	12.942701	22.788043	0.617400	-0.641205	2.260310	0.000000	-0.080183	0.000000	0.000022	-0.000002	0.000000	0.000000
36.721789	12.562027	23.102335	0.278268	-0.124819	2.239120	0.000000	-0.021386	0.000000	0.000021	-0.000001	0.000000	0.000000
37.019112	12.404138	23.180444	0.252767	-0.137890	2.232762	0.000000	-0.021386	0.000000	0.000021	-0.000001	0.000000	0.000000
37.352445	12.245157	23.277255	0.224178	-0.152543	2.225634	0.000000	-0.021386	0.000000	0.000020	-0.000001	0.000000	0.000000
37.685779	12.105235	23.383835	0.195588	-0.167196	2.218506	0.000000	-0.021386	0.000000	0.000020	-0.000001	0.000000	0.000000
38.020362	11.983956	23.500638	0.166891	-0.181905	2.211351	0.000000	-0.021386	0.000000	0.000019	-0.000001	0.000000	0.000000
38.317684	11.892297	23.612693	0.170548	-0.252870	2.204993	0.000000	-0.026792	0.000000	0.000019	-0.000001	0.000000	0.000000
38.758644	11.893465	23.574148	-0.173208	0.339949	2.207103	0.000000	0.036369	0.000000	0.000018	-0.000001	0.000000	0.000000
39.199604	12.200129	23.017633	-0.524878	0.917301	2.237129	0.000000	0.099944	0.000000	0.000018	-0.000000	0.000000	0.000000
39.640564	12.826301	21.968469	-0.900527	1.452917	2.295413	0.000000	0.164657	0.000000	0.000018	0.000000	0.000000	0.000000
40.081524	13.800586	20.474392	-1.317320	1.922426	2.382618	0.000000	0.231246	0.000000	0.000018	0.000000	0.000000	0.000000
40.527484	15.185077	18.580802	-1.798125	2.305753	2.501211	0.000000	0.300873	0.000000	0.000018	0.000001	0.000000	0.000000
41.076544	16.951712	16.452798	-1.400389	1.592845	2.645884	0.000000	0.225338	0.000000	0.000019	0.000000	0.000000	0.000000
41.625604	18.224349	15.041130	-0.903737	0.993393	2.747924	0.000000	0.145805	0.000000	0.000019	-0.000000	0.000000	0.000000
42.174664	18.913096	14.245249	-0.343249	0.464697	2.805521	0.000000	0.063686	0.000000	0.000019	-0.000001	0.000000	0.000000
42.723724	18.969303	14.008466	0.241484	-0.030899	2.817653	0.000000	-0.019562	0.000000	0.000018	-0.000001	0.000000	0.000000
43.022297	18.859567	14.011427	0.175609	-0.015617	2.814010	0.000000	-0.012201	0.000000	0.000017	-0.000001	0.000000	0.000000
43.502297	18.703576	14.042868	0.149373	-0.049883	2.808154	0.000000	-0.012201	0.000000	0.000017	-0.000001	0.000000	0.000000
43.982297	18.572771	14.107204	0.123137	-0.084150	2.802298	0.000000	-0.012201	0.000000	0.000016	-0.000001	0.000000	0.000000
44.462297	18.467153	14.204435	0.096900	-0.118416	2.796442	0.000000	-0.012201	0.000000	0.000015	-0.000001	0.000000	0.000000
44.942297	18.386722	14.334562	0.070664	-0.152682	2.790587	0.000000	-0.012201	0.000000	0.000015	-0.000001	0.000000	0.000000
45.423547	18.331594	14.497872	-0.046465	-0.115206	2.784733	0.000000	0.001596	0.000000	0.000014	-0.000001	0.000000	0.000000
45.720870	18.364057	14.572557	-0.110696	-0.097915	2.785208	0.000000	0.008872	0.000000	0.000014	-0.000001	0.000000	0.000000
46.269930	18.176410	14.961853	0.450431	-0.615294	2.767513	0.000000	-0.073235	0.000000	0.000013	-0.000002	0.000000	0.000000
46.818990	17.386483	15.939882	0.979741	-1.176499	2.705028	0.000000	-0.154043	0.000000	0.000012	-0.000002	0.000000	0.000000
47.368050	16.050072	17.576305	1.439848	-1.821503	2.598860	0.000000	-0.232118	0.000000	0.000011	-0.000002	0.000000	0.000000
47.917110	14.261573	19.987682	1.798250	-2.596248	2.450892	0.000000	-0.306077	0.000000	0.000009	-0.000003	0.000000	0.000000
48.363070	12.869876	22.131510	1.333485	-2.190761	2.329685	0.000000	-0.237789	0.000000	0.000008	-0.000003	0.000000	0.000000
48.804030	11.874042	23.847924	0.933413	-1.686873	2.239288	0.000000	-0.172606	0.000000	0.000007	-0.000002	0.000000	0.000000
49.244990	11.210972	25.084277	0.575986	-1.106234	2.177174	0.000000	-0.109389	0.000000	0.000006	-0.000002	0.000000	0.000000
49.685950	10.850374	25.784318	0.244874	-0.475262	2.142635	0.000000	-0.047418	0.000000	0.000005	-0.000002	0.000000	0.000000
50.128160	10.775893	25.915910	-0.048742	0.113734	2.135289	0.000000	0.008777	0.000000	0.000004	-0.000002	0.000000	0.000000
50.425482	10.813100	25.851733	-0.076399	0.102113	2.137900	0.000000	0.008777	0.000000	0.000003	-0.000002	0.000000	0.000000
50.758816	10.874368	25.788001	-0.107406	0.089085	2.140826	0.000000	0.008777	0.000000	0.000003	-0.000002	0.000000	0.000000
51.092149	10.956308	25.732954	-0.138413	0.076056	2.143753	0.000000	0.008777	0.000000	0.000002	-0.000002	0.000000	0.000000
51.426732	11.059118	25.686956	-0.079817	-0.145406	2.146668	0.000000	-0.008638	0.000000	0.000001	-0.000002	0.000000	0.000000
51.724055	11.114625	25.776935	-0.079617	-0.220439	2.144101	0.000000	-0.013896	0.000000	0.000001	-0.000002	0.000000	0.000000
52.165015	11.329995	25.684539	-0.410648	0.429174	2.151562	0.000000	0.047764	0.000000	-0.000000	-0.000002	0.000000	0.000000
52.605975	11.844446	25.025692	-0.760442	1.059260	2.186306	0.000000	0.109968	0.000000	-0.000001	-0.000002	0.000000	0.000000
53.046935	12.681484	23.830370	-1.144977	1.641151	2.248730	0.000000	0.173425	0.000000	-0.000002	-0.000002	0.000000	0.000000
53.487895	13.879349	22.152960	-1.581823	2.148370	2.339545	0.000000	0.238856	0.000000	-0.000003	-0.000002	0.000000	0.000000
53.933855	15.513306	20.044706	-2.095162	2.559179	2.461288	0.000000	0.307407	0.000000	-0.000004	-0.000002	0.000000	0.000000
54.482915	17.617046	17.672308	-1.713688	1.787162	2.609894	0.000000	0.233102	0.000000	-0.000005	-0.000002	0.000000	0.000000
55.031975	19.232530	16.073220	-1.211168	1.142440	2.716505	0.000000	0.154661	0.000000	-0.000006	-0.000002	0.000000	0.000000
55.581035	20.245648	15.133542	-0.623097	0.579092	2.779229	0.000000	0.073477	0.000000	-0.000007	-0.000002	0.000000	0.000000
56.130095	20.584840	14.786344	0.008986	0.056991	2.796954	0.000000	-0.009010	0.000000	-0.000008	-0.000001	0.000000	0.000000
56.428668	20.615932	14.735325	-0.059336	0.075251	2.796446	0.000000	-0.001701	0.000000	-0.000008	-0.000001	0.000000	0.000000
56.762001	20.660898	14.692741	-0.075561	0.052501	2.795880	0.000000	-0.001701	0.000000	-0.000009	-0.000001	0.000000	0.000000
57.095334	20.716681	14.665323	-0.091787	0.029752	2.795313	0.000000	-0.001701	0.000000	-0.000009	-0.000001	0.000000	0.000000
57.429918	20.783551	14.653054	-0.108074	0.006917	2.794744	0.000000	-0.001701	0.000000	-0.000010	-0.000001	0.000000	0.000000
57.727240	20.852119	14.654974	-0.177034	0.024919	2.794239	0.000000	0.005600	0.000000	-0.000010	-0.000001	0.000000	0.000000
58.276300	20.690827	14.908952	0.469054	-0.490218	2.774673	0.000000	-0.076769	0.000000	-0.000011	-0.000001	0.000000	0.000000
58.825360	19.834128	15.744351	1.082011	-1.040271	2.710189	0.000000	-0.157777	0.000000	-0.000011	-0.000001	0.000000	0.000000
59.374420	18.342535	17.220674	1.618539	-1.664420	2.601930	0.000000	-0.235986	0.000000	-0.000012	-0.000000	0.000000	0.000000
59.923480	16.321406	19.443077	2.040742	-2.407123	2.451817	0.000000	-0.310009	0.000000	-0.000012	-0.000000	0.000000	0.000000
60.369440	14.739540	21.418313	1.518923	-2.003358	2.328857	0.000000	-0.241720	0.000000	-0.000012	-0.000000	0.000000	0.000000
60.810400	13.601937	22.973402	1.070697	-1.509821	2.236718	0.000000	-0.176581	0.000000	-0.000012	-0.000001	0.000000	0.000000
61.251360	12.836651	24.061160	0.671387	-0.947587	2.172833	0.000000	-0.113453	0.000000	-0.000012	-0.000001	0.000000	0.000000
61.692320	12.408718	24.632095	0.302752	-0.342240	2.136473	0.000000	-0.051617	0.000000	-0.000013	-0.000001	0.000000	0.000000
62.134530	12.298641	24.659684	-0.021989	0.218145	2.127231	0.000000	0.004414	0.000000	-0.000013	-0.000002	0.000000	0.000000
62.431853	12.318908	24.533720	-0.046176	0.205515	2.128544	0.000000	0.004414	0.000000	-0.000014	-0.000002	0.000000	0.000000
62.765186	12.358731	24.401431	-0.073293	0.191354	2.130016	0.000000	0.004414	0.000000	-0.000014	-0.000002	0.000000	0.000000
63.098520	12.416632	24.278581	-0.100409	0.177193	2.131488	0.000000	0.004414	0.000000	-0.000015	-0.000002	0.000000	0.000000
63.433103	12.492929	24.164765	-0.127627	0.162980	2.132965	0.000000	0.004414	0.000000	-0.000016	-0.000002	0.000000	0.000000
63.730426	12.576013	24.071606	-0.120969	0.091309	2.134278	0.000000	-0.000821	0.000000	-0.000016	-0.000002	0.000000	0.000000
64.171386	12.842896	23.725995	-0.486560	0.689478	2.147459	0.000000	0.060660	0.000000	-0.000017	-0.000002	0.000000	0.000000
64.612346	13.440748	22.864718	-0.874381	1.256276	2.187878	0.000000	0.122831	0.000000	-0.000018	-0.000002	0.000000	0.000000
65.053306	14.396883	21.526963	-1.302149	1.765914	2.255993	0.000000	0.186401	0.000000	-0.000019	-0.000003	0.000000	0.000000
65.494266	15.754984	19.773596	-1.789409	2.195205	2.352582	0.000000	0.252094	0.000000	-0.000020	-0.000003	0.000000	0.000000
65.940226	17.600260	17.659592	-2.363113	2.525366	2.480317	0.000000	0.321061	0.000000	-0.000022	-0.000004	0.000000	0.000000
66.489286	19.965908	15.294765	-1.919929	1.807104	2.636229	0.000000	0.246020	0.000000	-0.000024	-0.000003	0.000000	0.000000
67.038346	21.767086	13.643791	-1.341130	1.217557	2.749679	0.000000	0.166616	0.000000	-0.000025	-0.000002	0.000000	0.000000
67.587406	22.876566	12.589074	-0.667601	0.714734	2.818653	0.000000	0.084256	0.000000	-0.000026	-0.000002	0.000000	0.000000
68.136466	23.215982	12.055489	0.053084	0.262820	2.841929	0.000000	0.000402	0.000000	-0.000027	-0.000001	0.000000	0.000000
68.435038	23.224353	11.887769	-0.020450	0.267414	2.844267	0.000000	0.007829	0.000000	-0.000027	-0.000001	0.000000	0.000000
68.768372	23.242773	11.719508	-0.034809	0.237368	2.846877	0.000000	0.007829	0.000000	-0.000028	-0.000001	0.000000	0.000000
69.101705	23.270765	11.571277	-0.049168	0.207323	2.849486	0.000000	0.007829	0.000000	-0.000028	-0.000001	0.000000	0.000000
69.436288	23.308489	11.442634	-0.063580	0.177165	2.852106	0.000000	0.007829	0.000000	-0.000028	-0.000001	0.000000	0.000000
69.733611	23.350105	11.345251	-0.137412	0.180016	2.854434	0.000000	0.015289	0.000000	-0.000028	-0.000001	0.000000	0.000000
70.282671	23.099961	11.374852	0.590301	-0.234246	2.839637	0.000000	-0.069108	0.000000	-0.000028	0.000000	0.000000	0.000000
