#ParticleID	Turn	x[m]	xp	y[m]	yp	z[m]	dE[GeV]# s	beta_x	beta_y	alpha_x	alpha_y	D_x	D_y	D_px	D_py	orbit_x	orbit_px	orbit_y	orbit_py
0.300000	11.804149	25.056702	-0.010100	-0.026820	2.618261	0.000000	-0.000043	0.000000	-0.000001	0.000002	0.000000	0.000000
0.601250	11.817923	25.076485	-0.035623	-0.038851	2.618247	0.000000	-0.000043	0.000000	-0.000001	0.000002	0.000000	0.000000
0.898573	11.846596	25.103119	-0.031762	-0.112286	2.618233	0.000000	-0.006464	0.000000	-0.000000	0.000002	0.000000	0.000000
1.339533	12.026622	24.923664	-0.378047	0.517701	2.631676	0.000000	0.067496	0.000000	0.000001	0.000002	0.000000	0.000000
1.780493	12.518477	24.196915	-0.741603	1.124133	2.677871	0.000000	0.142225	0.000000	0.000001	0.000002	0.000000	0.000000
2.221453	13.344632	22.955940	-1.139041	1.679417	2.757343	0.000000	0.218573	0.000000	0.000002	0.000002	0.000000	0.000000
2.662413	14.542832	21.257200	-1.588519	2.158290	2.870998	0.000000	0.297411	0.000000	0.000003	0.000002	0.000000	0.000000
3.108373	16.188536	19.153078	-2.114856	2.540095	3.021992	0.000000	0.380126	0.000000	0.000004	0.000002	0.000000	0.000000
3.657433	18.298917	16.789783	-1.706015	1.789568	3.205432	0.000000	0.287089	0.000000	0.000005	0.000002	0.000000	0.000000
4.206493	19.891110	15.176244	-1.176670	1.166508	3.336313	0.000000	0.188959	0.000000	0.000006	0.000002	0.000000	0.000000
4.755553	20.852651	14.197533	-0.564211	0.626535	3.412314	0.000000	0.087478	0.000000	0.000007	0.000001	0.000000	0.000000
5.304613	21.115620	13.783938	0.088102	0.131189	3.432088	0.000000	-0.015555	0.000000	0.000007	0.000001	0.000000	0.000000
5.603185	21.100180	13.690742	0.018779	0.144935	3.430120	0.000000	-0.006589	0.000000	0.000008	0.000001	0.000000	0.000000
5.936519	21.092928	13.602405	0.002976	0.120077	3.427923	0.000000	-0.006589	0.000000	0.000008	0.000001	0.000000	0.000000
6.269852	21.096212	13.530640	-0.012827	0.095218	3.425727	0.000000	-0.006589	0.000000	0.000009	0.000001	0.000000	0.000000
6.604435	21.110103	13.475272	-0.028690	0.070266	3.423522	0.000000	-0.006589	0.000000	0.000009	0.000001	0.000000	0.000000
6.901758	21.131354	13.440081	-0.097994	0.083206	3.421563	0.000000	0.002351	0.000000	0.000009	0.000001	0.000000	0.000000
7.450818	20.878858	13.609675	0.555143	-0.393910	3.394653	0.000000	-0.100226	0.000000	0.000010	0.000001	0.000000	0.000000
7.999878	19.926525	14.315440	1.169068	-0.899084	3.311828	0.000000	-0.201024	0.000000	0.000010	0.000001	0.000000	0.000000
8.548938	18.341625	15.607647	1.700415	-1.468297	3.174558	0.000000	-0.298257	0.000000	0.000011	0.000000	0.000000	0.000000
9.097998	16.236106	17.578336	2.111654	-2.142094	2.985277	0.000000	-0.390200	0.000000	0.000011	-0.000000	0.000000	0.000000
9.543958	14.593468	19.334288	1.584817	-1.778727	2.829569	0.000000	-0.308499	0.000000	0.000011	0.000000	0.000000	0.000000
9.984918	13.398816	20.712856	1.134669	-1.335665	2.710779	0.000000	-0.230795	0.000000	0.000011	0.000000	0.000000	0.000000
10.425878	12.576885	21.672286	0.736361	-0.831832	2.625641	0.000000	-0.155720	0.000000	0.000011	0.000001	0.000000	0.000000
10.866838	12.090123	22.168926	0.371695	-0.290151	2.573186	0.000000	-0.082418	0.000000	0.000012	0.000001	0.000000	0.000000
11.309048	11.916159	22.179651	0.053125	0.210287	2.552796	0.000000	-0.016315	0.000000	0.000012	0.000001	0.000000	0.000000
11.606371	11.892008	22.058767	0.028103	0.196289	2.547945	0.000000	-0.016315	0.000000	0.000013	0.000001	0.000000	0.000000
12.086371	11.884418	21.881177	-0.012292	0.173690	2.540113	0.000000	-0.016315	0.000000	0.000013	0.000001	0.000000	0.000000
12.566371	11.915608	21.725282	-0.052687	0.151092	2.532282	0.000000	-0.016315	0.000000	0.000014	0.000001	0.000000	0.000000
13.046371	11.985577	21.591081	-0.093082	0.128493	2.524450	0.000000	-0.016315	0.000000	0.000015	0.000001	0.000000	0.000000
13.526371	12.094326	21.478575	-0.133477	0.105895	2.516618	0.000000	-0.016315	0.000000	0.000015	0.000001	0.000000	0.000000
14.007621	12.242289	21.387555	-0.173978	0.083238	2.508766	0.000000	-0.016315	0.000000	0.000016	0.000001	0.000000	0.000000
14.304943	12.353183	21.342220	-0.168710	0.016911	2.503915	0.000000	-0.022454	0.000000	0.000016	0.000001	0.000000	0.000000
14.745903	12.660448	21.093735	-0.530743	0.544455	2.509643	0.000000	0.048460	0.000000	0.000017	0.000002	0.000000	0.000000
15.186863	13.296443	20.389185	-0.917023	1.047227	2.546732	0.000000	0.119925	0.000000	0.000018	0.000002	0.000000	0.000000
15.627823	14.290223	19.260628	-1.345200	1.502351	2.615606	0.000000	0.192756	0.000000	0.000019	0.000003	0.000000	0.000000
16.068783	15.687192	17.759412	-1.834835	1.889119	2.717048	0.000000	0.267783	0.000000	0.000020	0.000003	0.000000	0.000000
16.514743	17.574837	15.932342	-2.413057	2.190676	2.853908	0.000000	0.346322	0.000000	0.000022	0.000004	0.000000	0.000000
17.063803	19.999364	13.892329	-1.976578	1.546719	3.020332	0.000000	0.259006	0.000000	0.000024	0.000003	0.000000	0.000000
17.612863	21.864617	12.495173	-1.400484	1.012932	3.137481	0.000000	0.167096	0.000000	0.000025	0.000002	0.000000	0.000000
18.161923	23.038843	11.641359	-0.725466	0.551294	3.203277	0.000000	0.072222	0.000000	0.000026	0.000001	0.000000	0.000000
18.710983	23.439101	11.270071	0.000795	0.128923	3.216553	0.000000	-0.023932	0.000000	0.000026	0.000001	0.000000	0.000000
19.009556	23.479006	11.183613	-0.073219	0.131206	3.211916	0.000000	-0.015530	0.000000	0.000027	0.000001	0.000000	0.000000
19.342889	23.532576	11.106249	-0.087492	0.100887	3.206739	0.000000	-0.015530	0.000000	0.000027	0.000001	0.000000	0.000000
19.676223	23.595662	11.049097	-0.101765	0.070569	3.201562	0.000000	-0.015530	0.000000	0.000027	0.000001	0.000000	0.000000
20.010806	23.668846	11.011920	-0.233360	0.094696	3.196386	0.000000	0.000307	0.000000	0.000027	0.000001	0.000000	0.000000
20.308129	23.811551	10.963709	-0.308807	0.096094	3.196477	0.000000	0.008657	0.000000	0.000027	0.000001	0.000000	0.000000
20.857189	23.739957	11.080083	0.438429	-0.309295	3.175016	0.000000	-0.086715	0.000000	0.000028	-0.000000	0.000000	0.000000
21.406249	22.860026	11.651034	1.154697	-0.736714	3.101536	0.000000	-0.180548	0.000000	0.000027	-0.000001	0.000000	0.000000
21.955309	21.233911	12.717232	1.789403	-1.216608	2.977341	0.000000	-0.271180	0.000000	0.000027	-0.000002	0.000000	0.000000
22.504369	18.976475	14.354619	2.297714	-1.783158	2.804633	0.000000	-0.357001	0.000000	0.000025	-0.000003	0.000000	0.000000
22.950329	17.197306	15.824803	1.705891	-1.499606	2.662717	0.000000	-0.279806	0.000000	0.000024	-0.000002	0.000000	0.000000
23.391289	15.922215	16.997050	1.196702	-1.148675	2.555653	0.000000	-0.206252	0.000000	0.000023	-0.000001	0.000000	0.000000
23.832249	15.070473	17.835488	0.742188	-0.745480	2.480475	0.000000	-0.135048	0.000000	0.000023	-0.000001	0.000000	0.000000
24.273209	14.603166	18.301967	0.321582	-0.308367	2.436327	0.000000	-0.065381	0.000000	0.000023	-0.000000	0.000000	0.000000
24.715418	14.499066	18.375021	-0.048871	0.097656	2.422702	0.000000	-0.002399	0.000000	0.000023	0.000000	0.000000	0.000000
25.012741	14.534238	18.321807	-0.069426	0.081321	2.421989	0.000000	-0.002399	0.000000	0.000023	0.000000	0.000000	0.000000
25.346075	14.588204	18.273697	-0.092471	0.063008	2.421189	0.000000	-0.002399	0.000000	0.000023	0.000000	0.000000	0.000000
25.679408	14.657533	18.237796	-0.115516	0.044694	2.420389	0.000000	-0.002399	0.000000	0.000023	0.000000	0.000000	0.000000
26.013991	14.742272	18.214408	-0.019048	-0.121452	2.419562	0.000000	-0.022029	0.000000	0.000023	0.000000	0.000000	0.000000
26.311314	14.759598	18.291554	-0.003036	-0.182863	2.413012	0.000000	-0.027945	0.000000	0.000023	0.000000	0.000000	0.000000
26.752274	14.944101	18.254481	-0.416964	0.266618	2.415797	0.000000	0.040588	0.000000	0.000023	0.000001	0.000000	0.000000
27.193234	15.500646	17.824856	-0.849942	0.703968	2.448874	0.000000	0.109582	0.000000	0.000024	0.000001	0.000000	0.000000
27.634194	16.454657	17.022228	-1.321752	1.109289	2.512621	0.000000	0.179824	0.000000	0.000024	0.000002	0.000000	0.000000
28.075154	17.849722	15.883115	-1.853948	1.464137	2.607764	0.000000	0.252115	0.000000	0.000025	0.000002	0.000000	0.000000
28.521114	19.773810	14.442184	-2.475819	1.753280	2.736988	0.000000	0.327720	0.000000	0.000027	0.000003	0.000000	0.000000
29.070174	22.219326	12.836800	-1.951815	1.187855	2.894267	0.000000	0.244341	0.000000	0.000028	0.000002	0.000000	0.000000
29.619234	24.009846	11.802495	-1.289944	0.707037	3.004506	0.000000	0.156628	0.000000	0.000029	0.000001	0.000000	0.000000
30.168294	25.018899	11.265599	-0.536958	0.276581	3.065751	0.000000	0.066136	0.000000	0.000030	0.000000	0.000000	0.000000
30.717354	25.175209	11.187868	0.253957	-0.134175	3.076915	0.000000	-0.025528	0.000000	0.000029	-0.000001	0.000000	0.000000
31.015927	25.066496	11.258594	0.175915	-0.131931	3.071693	0.000000	-0.017491	0.000000	0.000029	-0.000000	0.000000	0.000000
31.349260	24.953789	11.356589	0.162205	-0.162054	3.065863	0.000000	-0.017491	0.000000	0.000029	-0.000000	0.000000	0.000000
31.682593	24.850222	11.474666	0.148496	-0.192176	3.060033	0.000000	-0.017491	0.000000	0.000029	-0.000000	0.000000	0.000000
32.017177	24.755457	11.613380	0.134735	-0.222411	3.054181	0.000000	-0.017491	0.000000	0.000029	-0.000000	0.000000	0.000000
32.314499	24.678973	11.753624	0.058041	-0.218577	3.048981	0.000000	-0.009526	0.000000	0.000029	-0.000000	0.000000	0.000000
32.863559	24.192374	12.232818	0.822953	-0.659327	3.018874	0.000000	-0.099979	0.000000	0.000028	-0.000001	0.000000	0.000000
33.412619	22.892913	13.218801	1.529736	-1.147039	2.939519	0.000000	-0.188658	0.000000	0.000027	-0.000002	0.000000	0.000000
33.961679	20.872378	14.781804	2.128466	-1.716452	2.812322	0.000000	-0.273991	0.000000	0.000026	-0.000003	0.000000	0.000000
34.510739	18.273489	17.033156	2.576852	-2.408124	2.639540	0.000000	-0.354464	0.000000	0.000024	-0.000004	0.000000	0.000000
34.956699	16.252690	19.046943	1.970727	-2.088644	2.497803	0.000000	-0.281549	0.000000	0.000022	-0.000003	0.000000	0.000000
35.397659	14.745743	20.712844	1.459659	-1.674875	2.389030	0.000000	-0.212269	0.000000	0.000021	-0.000003	0.000000	0.000000
35.838619	13.658518	21.978708	1.015278	-1.184900	2.310246	0.000000	-0.145407	0.000000	0.000020	-0.000002	0.000000	0.000000
36.279579	12.941345	22.786939	0.617282	-0.641014	2.260552	0.000000	-0.080200	0.000000	0.000019	-0.000002	0.000000	0.000000
36.721789	12.560761	23.101074	0.278181	-0.124656	2.239356	0.000000	-0.021398	0.000000	0.000018	-0.000001	0.000000	0.000000
37.019112	12.402924	23.179087	0.252678	-0.137727	2.232994	0.000000	-0.021398	0.000000	0.000018	-0.000001	0.000000	0.000000
37.352445	12.244002	23.275789	0.224087	-0.152380	2.225862	0.000000	-0.021398	0.000000	0.000018	-0.000001	0.000000	0.000000
37.685779	12.104142	23.382260	0.195496	-0.167034	2.218730	0.000000	-0.021398	0.000000	0.000017	-0.000001	0.000000	0.000000
38.020362	11.982924	23.498955	0.166797	-0.181742	2.211571	0.000000	-0.021398	0.000000	0.000017	-0.000001	0.000000	0.000000
38.317684	11.891322	23.610913	0.170451	-0.252705	2.205209	0.000000	-0.026805	0.000000	0.000016	-0.000001	0.000000	0.000000
38.758644	11.892566	23.572244	-0.173284	0.340065	2.207315	0.000000	0.036361	0.000000	0.000016	-0.000001	0.000000	0.000000
39.199604	12.199289	23.015651	-0.524936	0.917362	2.237339	0.000000	0.099942	0.000000	0.000016	-0.000000	0.000000	0.000000
39.640564	12.825504	21.966458	-0.900570	1.452920	2.295623	0.000000	0.164660	0.000000	0.000015	-0.000000	0.000000	0.000000
40.081524	13.799822	20.472404	-1.317349	1.922371	2.382831	0.000000	0.231255	0.000000	0.000015	0.000000	0.000000	0.000000
40.527484	15.184334	18.578887	-1.798143	2.305643	2.501428	0.000000	0.300888	0.000000	0.000016	0.000001	0.000000	0.000000
41.076544	16.951006	16.450973	-1.400440	1.592790	2.646108	0.000000	0.225345	0.000000	0.000016	0.000000	0.000000	0.000000
41.625604	18.223715	15.039339	-0.903817	0.993387	2.748150	0.000000	0.145805	0.000000	0.000016	-0.000000	0.000000	0.000000
42.174664	18.912564	14.243436	-0.343352	0.464742	2.805745	0.000000	0.063679	0.000000	0.000016	-0.000001	0.000000	0.000000
42.723724	18.968894	14.006575	0.241364	-0.030801	2.817871	0.000000	-0.019577	0.000000	0.000015	-0.000001	0.000000	0.000000
43.022297	18.859229	14.009482	0.175489	-0.015526	2.814224	0.000000	-0.012215	0.000000	0.000015	-0.000001	0.000000	0.000000
43.502297	18.703353	14.040837	0.149254	-0.049797	2.808361	0.000000	-0.012215	0.000000	0.000014	-0.000001	0.000000	0.000000
43.982297	18.572662	14.105093	0.123018	-0.084068	2.802499	0.000000	-0.012215	0.000000	0.000013	-0.000001	0.000000	0.000000
44.462297	18.467158	14.202248	0.096783	-0.118339	2.796636	0.000000	-0.012215	0.000000	0.000013	-0.000001	0.000000	0.000000
44.942297	18.386840	14.332303	0.070547	-0.152610	2.790774	0.000000	-0.012215	0.000000	0.000012	-0.000001	0.000000	0.000000
45.423547	18.331824	14.495546	-0.046583	-0.115150	2.784913	0.000000	0.001583	0.000000	0.000012	-0.000001	0.000000	0.000000
45.720870	18.364357	14.570199	-0.110815	-0.097868	2.785384	0.000000	0.008860	0.000000	0.000011	-0.000001	0.000000	0.000000
46.269930	18.176835	14.959404	0.450325	-0.615174	2.767681	0.000000	-0.073252	0.000000	0.000010	-0.000002	0.000000	0.000000
46.818990	17.387014	15.937256	0.979656	-1.176297	2.705185	0.000000	-0.154066	0.000000	0.000010	-0.000002	0.000000	0.000000
47.368050	16.050681	17.573407	1.439790	-1.821205	2.599003	0.000000	-0.232146	0.000000	0.000008	-0.000002	0.000000	0.000000
47.917110	14.262230	19.984396	1.798223	-2.595834	2.451019	0.000000	-0.306109	0.000000	0.000007	-0.000002	0.000000	0.000000
48.363070	12.870560	22.127886	1.333449	-2.190422	2.329797	0.000000	-0.237818	0.000000	0.000006	-0.000002	0.000000	0.000000
48.804030	11.874762	23.844039	0.933367	-1.686625	2.239388	0.000000	-0.172632	0.000000	0.000005	-0.000002	0.000000	0.000000
49.244990	11.211739	25.080218	0.575928	-1.106087	2.177263	0.000000	-0.109413	0.000000	0.000004	-0.000002	0.000000	0.000000
49.685950	10.851197	25.780176	0.244801	-0.475223	2.142714	0.000000	-0.047440	0.000000	0.000003	-0.000002	0.000000	0.000000
50.128160	10.776789	25.911782	-0.048831	0.113672	2.135358	0.000000	0.008757	0.000000	0.000003	-0.000002	0.000000	0.000000
50.425482	10.814048	25.847643	-0.076486	0.102050	2.137963	0.000000	0.008757	0.000000	0.000002	-0.000002	0.000000	0.000000
50.758816	10.875374	25.783953	-0.107490	0.089019	2.140882	0.000000	0.008757	0.000000	0.000001	-0.000002	0.000000	0.000000
51.092149	10.957369	25.728950	-0.138495	0.075989	2.143802	0.000000	0.008757	0.000000	0.000001	-0.000002	0.000000	0.000000
51.426732	11.060233	25.682998	-0.079888	-0.145443	2.146711	0.000000	-0.008658	0.000000	0.000000	-0.000002	0.000000	0.000000
51.724055	11.115781	25.773000	-0.079682	-0.220469	2.144137	0.000000	-0.013916	0.000000	-0.000000	-0.000002	0.000000	0.000000
52.165015	11.331221	25.680677	-0.410741	0.429041	2.151589	0.000000	0.047744	0.000000	-0.000001	-0.000002	0.000000	0.000000
52.605975	11.845768	25.021991	-0.760567	1.059029	2.186325	0.000000	0.109949	0.000000	-0.000002	-0.000002	0.000000	0.000000
53.046935	12.682932	23.826912	-1.145140	1.640833	2.248741	0.000000	0.173406	0.000000	-0.000003	-0.000002	0.000000	0.000000
53.487895	13.880960	22.149815	-1.582031	2.147980	2.339546	0.000000	0.238838	0.000000	-0.000004	-0.000002	0.000000	0.000000
53.933855	15.515127	20.041934	-2.095425	2.558734	2.461282	0.000000	0.307388	0.000000	-0.000004	-0.000002	0.000000	0.000000
54.482915	17.619129	17.669962	-1.713900	1.786826	2.609877	0.000000	0.233083	0.000000	-0.000006	-0.000002	0.000000	0.000000
55.031975	19.234810	16.071195	-1.211314	1.142189	2.716477	0.000000	0.154643	0.000000	-0.000007	-0.000002	0.000000	0.000000
55.581035	20.248048	15.131755	-0.623167	0.578908	2.779192	0.000000	0.073461	0.000000	-0.000007	-0.000002	0.000000	0.000000
56.130095	20.587272	14.784728	0.008997	0.056861	2.796908	0.000000	-0.009025	0.000000	-0.000008	-0.000001	0.000000	0.000000
56.428668	20.618361	14.733790	-0.059329	0.075114	2.796396	0.000000	-0.001717	0.000000	-0.000009	-0.000001	0.000000	0.000000
56.762001	20.663321	14.691297	-0.075553	0.052363	2.795824	0.000000	-0.001717	0.000000	-0.000009	-0.000001	0.000000	0.000000
57.095334	20.719098	14.663972	-0.091776	0.029612	2.795253	0.000000	-0.001717	0.000000	-0.000009	-0.000001	0.000000	0.000000
57.429918	20.785960	14.651798	-0.108061	0.006775	2.794679	0.000000	-0.001717	0.000000	-0.000010	-0.000001	0.000000	0.000000
57.727240	20.854521	14.653803	-0.177026	0.024772	2.794169	0.000000	0.005585	0.000000	-0.000010	-0.000001	0.000000	0.000000
58.276300	20.693176	14.907924	0.469142	-0.490334	2.774594	0.000000	-0.076782	0.000000	-0.000011	-0.000001	0.000000	0.000000
58.825360	19.836340	15.743438	1.082171	-1.040365	2.710103	0.000000	-0.157787	0.000000	-0.000011	-0.000001	0.000000	0.000000
59.374420	18.344534	17.219855	1.618762	-1.664500	2.601840	0.000000	-0.235993	0.000000	-0.000012	-0.000000	0.000000	0.000000
59.923480	16.323134	19.442339	2.041011	-2.407192	2.451723	0.000000	-0.310014	0.000000	-0.000012	0.000000	0.000000	0.000000
60.369440	14.741052	21.417652	1.519138	-2.003459	2.328761	0.000000	-0.241727	0.000000	-0.000012	-0.000000	0.000000	0.000000
60.810400	13.603280	22.972841	1.070868	-1.509947	2.236618	0.000000	-0.176590	0.000000	-0.000012	-0.000000	0.000000	0.000000
61.251360	12.837859	24.060720	0.671523	-0.947734	2.172728	0.000000	-0.113465	0.000000	-0.000012	-0.000001	0.000000	0.000000
61.692320	12.409820	24.631791	0.302858	-0.342400	2.136362	0.000000	-0.051632	0.000000	-0.000012	-0.000001	0.000000	0.000000
62.134530	12.299661	24.659525	-0.021907	0.217979	2.127112	0.000000	0.004396	0.000000	-0.000013	-0.000001	0.000000	0.000000
62.431853	12.319879	24.533660	-0.046091	0.205349	2.128420	0.000000	0.004396	0.000000	-0.000013	-0.000001	0.000000	0.000000
62.765186	12.359644	24.401480	-0.073205	0.191189	2.129886	0.000000	0.004396	0.000000	-0.000014	-0.000001	0.000000	0.000000
63.098520	12.417486	24.278741	-0.100319	0.177030	2.131351	0.000000	0.004396	0.000000	-0.000014	-0.000001	0.000000	0.000000
63.433103	12.493722	24.165034	-0.127535	0.162817	2.132823	0.000000	0.004396	0.000000	-0.000015	-0.000001	0.000000	0.000000
63.730426	12.576751	24.071971	-0.120874	0.091146	2.134130	0.000000	-0.000838	0.000000	-0.000015	-0.000001	0.000000	0.000000
64.171386	12.843557	23.726498	-0.486479	0.689329	2.147303	0.000000	0.060638	0.000000	-0.000016	-0.000002	0.000000	0.000000
64.612346	13.441342	22.865343	-0.874310	1.256148	2.187711	0.000000	0.122805	0.000000	-0.000017	-0.000002	0.000000	0.000000
65.053306	14.397417	21.527689	-1.302085	1.765813	2.255814	0.000000	0.186371	0.000000	-0.000018	-0.000003	0.000000	0.000000
65.494266	15.755464	19.774398	-1.789350	2.195135	2.352389	0.000000	0.252060	0.000000	-0.000019	-0.000003	0.000000	0.000000
65.940226	17.600687	17.660441	-2.363055	2.525331	2.480107	0.000000	0.321021	0.000000	-0.000020	-0.000004	0.000000	0.000000
66.489286	19.966258	15.295661	-1.919845	1.807056	2.635999	0.000000	0.245987	0.000000	-0.000022	-0.000003	0.000000	0.000000
67.038346	21.767333	13.644747	-1.341028	1.217493	2.749432	0.000000	0.166591	0.000000	-0.000024	-0.000002	0.000000	0.000000
67.587406	22.876694	12.590110	-0.667487	0.714650	2.818395	0.000000	0.084239	0.000000	-0.000025	-0.000001	0.000000	0.000000
68.136466	23.215981	12.056630	0.053202	0.262710	2.841663	0.000000	0.000393	0.000000	-0.000025	-0.000001	0.000000	0.000000
68.435038	23.224281	11.888973	-0.020331	0.267311	2.843998	0.000000	0.007819	0.000000	-0.000025	-0.000001	0.000000	0.000000
68.768372	23.242621	11.720779	-0.034690	0.237270	2.846605	0.000000	0.007819	0.000000	-0.000026	-0.000001	0.000000	0.000000
69.101705	23.270534	11.572613	-0.049048	0.207229	2.849212	0.000000	0.007819	0.000000	-0.000026	-0.000001	0.000000	0.000000
69.436288	23.308178	11.444030	-0.063461	0.177076	2.851828	0.000000	0.007819	0.000000	-0.000026	-0.000001	0.000000	0.000000
69.733611	23.349723	11.346700	-0.137290	0.179934	2.854153	0.000000	0.015278	0.000000	-0.000026	-0.000001	0.000000	0.000000
70.282671	23.099453	11.376413	0.590406	-0.234370	2.839353	0.000000	-0.069109	0.000000	-0.000026	0.000000	0.000000	0.000000
