#ParticleID	Turn	x[m]	xp	y[m]	yp	z[m]	dE[GeV]# s	beta_x	beta_y	alpha_x	alpha_y	D_x	D_y	D_px	D_py	orbit_x	orbit_px	orbit_y	orbit_py
0.300000	11.819786	24.994300	-0.011714	-0.027512	2.618062	0.000000	0.000032	0.000000	-0.000000	0.000001	0.000000	0.000000
0.601250	11.834522	25.014510	-0.037204	-0.039574	2.618072	0.000000	0.000032	0.000000	0.000000	0.000001	0.000000	0.000000
0.898573	11.864125	25.041582	-0.033268	-0.112888	2.618081	0.000000	-0.006388	0.000000	0.000000	0.000001	0.000000	0.000000
1.339533	12.045667	24.863374	-0.379991	0.515486	2.631557	0.000000	0.067568	0.000000	0.000001	0.000001	0.000000	0.000000
1.780493	12.539462	24.139256	-0.744074	1.120405	2.677783	0.000000	0.142295	0.000000	0.000001	0.000001	0.000000	0.000000
2.221453	13.368069	22.902175	-1.142153	1.674346	2.757286	0.000000	0.218641	0.000000	0.000001	0.000001	0.000000	0.000000
2.662413	14.569346	21.208417	-1.592412	2.152106	2.870972	0.000000	0.297478	0.000000	0.000002	0.000001	0.000000	0.000000
3.108373	16.218940	19.110206	-2.119718	2.533079	3.021996	0.000000	0.380193	0.000000	0.000002	0.000001	0.000000	0.000000
3.657433	18.334250	16.753643	-1.710078	1.784251	3.205473	0.000000	0.287155	0.000000	0.000002	0.000001	0.000000	0.000000
4.206493	19.930331	15.145189	-1.179647	1.162510	3.336390	0.000000	0.189023	0.000000	0.000003	0.000001	0.000000	0.000000
4.755553	20.894444	14.170277	-0.565892	0.623573	3.412426	0.000000	0.087538	0.000000	0.000003	0.000001	0.000000	0.000000
5.304613	21.158489	13.759466	0.087836	0.129051	3.432232	0.000000	-0.015499	0.000000	0.000003	0.000000	0.000000	0.000000
5.603185	21.143267	13.667592	0.018428	0.142711	3.430282	0.000000	-0.006531	0.000000	0.000004	0.000000	0.000000	0.000000
5.936519	21.136239	13.580747	0.002657	0.117825	3.428105	0.000000	-0.006531	0.000000	0.000004	0.000000	0.000000	0.000000
6.269852	21.139724	13.510492	-0.013114	0.092940	3.425927	0.000000	-0.006531	0.000000	0.000004	0.000000	0.000000	0.000000
6.604435	21.153796	13.456657	-0.028944	0.067961	3.423742	0.000000	-0.006531	0.000000	0.000004	0.000000	0.000000	0.000000
6.901758	21.175190	13.422844	-0.098336	0.080835	3.421800	0.000000	0.002409	0.000000	0.000004	0.000001	0.000000	0.000000
7.450818	20.922261	13.594786	0.556267	-0.395841	3.394920	0.000000	-0.100175	0.000000	0.000005	0.000000	0.000000	0.000000
7.999878	19.967921	14.302494	1.171577	-0.900712	3.312121	0.000000	-0.200983	0.000000	0.000005	0.000000	0.000000	0.000000
8.548938	18.379581	15.596376	1.704134	-1.469738	3.174871	0.000000	-0.298226	0.000000	0.000005	0.000000	0.000000	0.000000
9.097998	16.269432	17.568592	2.116318	-2.143451	2.985605	0.000000	-0.390179	0.000000	0.000005	-0.000000	0.000000	0.000000
9.543958	14.623093	19.325957	1.588482	-1.780529	2.829908	0.000000	-0.308469	0.000000	0.000005	0.000000	0.000000	0.000000
9.984918	13.425582	20.706280	1.137511	-1.337826	2.711133	0.000000	-0.230756	0.000000	0.000005	0.000000	0.000000	0.000000
10.425878	12.601458	21.667738	0.738510	-0.834253	2.626014	0.000000	-0.155672	0.000000	0.000005	0.000000	0.000000	0.000000
10.866838	12.113069	22.166588	0.373249	-0.292723	2.573583	0.000000	-0.082360	0.000000	0.000005	0.000000	0.000000	0.000000
11.309048	11.937967	22.179612	0.054210	0.207678	2.553221	0.000000	-0.016248	0.000000	0.000005	0.000001	0.000000	0.000000
11.606371	11.913158	22.060275	0.029231	0.193695	2.548390	0.000000	-0.016248	0.000000	0.000005	0.000001	0.000000	0.000000
12.086371	11.904453	21.885164	-0.011095	0.171120	2.540591	0.000000	-0.016248	0.000000	0.000006	0.000001	0.000000	0.000000
12.566371	11.934460	21.731724	-0.051421	0.148545	2.532792	0.000000	-0.016248	0.000000	0.000006	0.000001	0.000000	0.000000
13.046371	12.003180	21.599957	-0.091747	0.125970	2.524993	0.000000	-0.016248	0.000000	0.000006	0.000001	0.000000	0.000000
13.526371	12.110614	21.489862	-0.132073	0.103395	2.517194	0.000000	-0.016248	0.000000	0.000006	0.000001	0.000000	0.000000
14.007621	12.257191	21.401237	-0.172504	0.080761	2.509375	0.000000	-0.016248	0.000000	0.000007	0.000001	0.000000	0.000000
14.304943	12.367196	21.357370	-0.167157	0.014407	2.504544	0.000000	-0.022389	0.000000	0.000007	0.000001	0.000000	0.000000
14.745903	12.673214	21.110896	-0.529457	0.542414	2.510304	0.000000	0.048541	0.000000	0.000007	0.000001	0.000000	0.000000
15.186863	13.308171	20.407908	-0.915947	1.045741	2.547433	0.000000	0.120024	0.000000	0.000007	0.000001	0.000000	0.000000
15.627823	14.301076	19.280391	-1.344284	1.501488	2.616355	0.000000	0.192874	0.000000	0.000008	0.000001	0.000000	0.000000
16.068783	15.697292	17.779647	-1.834037	1.888918	2.717854	0.000000	0.267921	0.000000	0.000008	0.000001	0.000000	0.000000
16.514743	17.584263	15.952454	-2.412340	2.191151	2.854781	0.000000	0.346481	0.000000	0.000009	0.000002	0.000000	0.000000
17.063803	20.007723	13.912171	-1.975366	1.546738	3.021286	0.000000	0.259136	0.000000	0.000010	0.000001	0.000000	0.000000
17.612863	21.871410	12.515245	-1.398862	1.012495	3.138498	0.000000	0.167194	0.000000	0.000010	0.000001	0.000000	0.000000
18.161923	23.043681	11.662173	-0.723549	0.550370	3.204340	0.000000	0.072287	0.000000	0.000011	0.000001	0.000000	0.000000
18.710983	23.441733	11.292195	0.002871	0.127447	3.217642	0.000000	-0.023903	0.000000	0.000011	0.000000	0.000000	0.000000
19.009556	23.480405	11.206562	-0.071152	0.129857	3.213015	0.000000	-0.015496	0.000000	0.000011	0.000000	0.000000	0.000000
19.342889	23.532596	11.130073	-0.085420	0.099611	3.207849	0.000000	-0.015496	0.000000	0.000011	0.000000	0.000000	0.000000
19.676223	23.594299	11.073748	-0.099688	0.069365	3.202684	0.000000	-0.015496	0.000000	0.000011	0.000000	0.000000	0.000000
20.010806	23.666092	11.037352	-0.231265	0.093691	3.197519	0.000000	0.000346	0.000000	0.000011	0.000000	0.000000	0.000000
20.308129	23.807548	10.989719	-0.306699	0.095228	3.197622	0.000000	0.008700	0.000000	0.000011	0.000000	0.000000	0.000000
20.857189	23.733723	11.107447	0.440360	-0.310910	3.176174	0.000000	-0.086709	0.000000	0.000011	-0.000000	0.000000	0.000000
21.406249	22.851833	11.680634	1.156314	-0.739194	3.102687	0.000000	-0.180580	0.000000	0.000011	-0.000000	0.000000	0.000000
21.955309	21.224170	12.750108	1.790592	-1.220130	2.978464	0.000000	-0.271248	0.000000	0.000011	-0.000001	0.000000	0.000000
22.504369	18.965703	14.392044	2.298391	-1.787972	2.805709	0.000000	-0.357104	0.000000	0.000010	-0.000001	0.000000	0.000000
22.950329	17.185872	15.866143	1.706708	-1.503535	2.663751	0.000000	-0.279882	0.000000	0.000010	-0.000001	0.000000	0.000000
23.391289	15.909986	17.041399	1.197696	-1.151544	2.556660	0.000000	-0.206302	0.000000	0.000010	-0.000001	0.000000	0.000000
23.832249	15.057273	17.881849	0.743404	-0.747158	2.481465	0.000000	-0.135072	0.000000	0.000009	-0.000000	0.000000	0.000000
24.273209	14.588776	18.349254	0.323076	-0.308778	2.437312	0.000000	-0.065380	0.000000	0.000009	-0.000000	0.000000	0.000000
24.715418	14.483207	18.422100	-0.047065	0.098410	2.423693	0.000000	-0.002376	0.000000	0.000009	0.000000	0.000000	0.000000
25.012741	14.517311	18.368426	-0.067639	0.082115	2.422986	0.000000	-0.002376	0.000000	0.000009	0.000000	0.000000	0.000000
25.346075	14.570092	18.319772	-0.090706	0.063845	2.422194	0.000000	-0.002376	0.000000	0.000009	0.000000	0.000000	0.000000
25.679408	14.638252	18.283299	-0.113772	0.045576	2.421402	0.000000	-0.002376	0.000000	0.000009	0.000000	0.000000	0.000000
26.013991	14.721832	18.259307	-0.017491	-0.120891	2.420582	0.000000	-0.022014	0.000000	0.000009	0.000000	0.000000	0.000000
26.311314	14.738239	18.336106	-0.001554	-0.182374	2.414037	0.000000	-0.027933	0.000000	0.000009	-0.000000	0.000000	0.000000
26.752274	14.921201	18.298069	-0.414936	0.268306	2.416833	0.000000	0.040626	0.000000	0.000009	0.000000	0.000000	0.000000
27.193234	15.475682	17.866454	-0.847275	0.706777	2.449933	0.000000	0.109647	0.000000	0.000010	0.000000	0.000000	0.000000
27.634194	16.427016	17.060900	-1.318324	1.113091	2.513716	0.000000	0.179917	0.000000	0.000010	0.000001	0.000000	0.000000
28.075154	17.818667	15.918058	-1.849604	1.468760	2.608906	0.000000	0.252237	0.000000	0.000010	0.000001	0.000000	0.000000
28.521114	19.738393	14.472713	-2.470350	1.758514	2.738192	0.000000	0.327872	0.000000	0.000011	0.000001	0.000000	0.000000
29.070174	22.178380	12.862262	-1.947278	1.191904	2.895544	0.000000	0.244453	0.000000	0.000011	0.000001	0.000000	0.000000
29.619234	23.964581	11.824026	-1.286661	0.710191	3.005833	0.000000	0.156697	0.000000	0.000012	0.000001	0.000000	0.000000
30.168294	24.970828	11.284054	-0.535161	0.279063	3.067105	0.000000	0.066162	0.000000	0.000012	0.000000	0.000000	0.000000
30.717354	25.126043	11.203883	0.254141	-0.132188	3.078272	0.000000	-0.025546	0.000000	0.000012	-0.000000	0.000000	0.000000
31.015927	25.017156	11.273381	0.176193	-0.129848	3.073046	0.000000	-0.017504	0.000000	0.000012	-0.000000	0.000000	0.000000
31.349260	24.904274	11.369968	0.162455	-0.159915	3.067211	0.000000	-0.017504	0.000000	0.000012	-0.000000	0.000000	0.000000
31.682593	24.800550	11.486600	0.148717	-0.189981	3.061377	0.000000	-0.017504	0.000000	0.000012	-0.000000	0.000000	0.000000
32.017177	24.705647	11.623827	0.134928	-0.220161	3.055521	0.000000	-0.017504	0.000000	0.000012	-0.000000	0.000000	0.000000
32.314499	24.629056	11.762718	0.058329	-0.216249	3.050316	0.000000	-0.009535	0.000000	0.000011	-0.000000	0.000000	0.000000
32.863559	24.143051	12.239440	0.821590	-0.657126	3.020193	0.000000	-0.100030	0.000000	0.000011	-0.000001	0.000000	0.000000
33.412619	22.845956	13.223004	1.526817	-1.144809	2.940798	0.000000	-0.188751	0.000000	0.000011	-0.000001	0.000000	0.000000
33.961679	20.829391	14.783469	2.124198	-1.714034	2.813538	0.000000	-0.274125	0.000000	0.000010	-0.000001	0.000000	0.000000
34.510739	18.235797	17.031984	2.571536	-2.405346	2.640670	0.000000	-0.354636	0.000000	0.000009	-0.000002	0.000000	0.000000
34.956699	16.219213	19.043175	1.966560	-2.085625	2.498862	0.000000	-0.281693	0.000000	0.000009	-0.000001	0.000000	0.000000
35.397659	14.715510	20.706359	1.456441	-1.671756	2.390032	0.000000	-0.212386	0.000000	0.000008	-0.000001	0.000000	0.000000
35.838619	13.630761	21.969481	1.012863	-1.181824	2.311201	0.000000	-0.145498	0.000000	0.000008	-0.000001	0.000000	0.000000
36.279579	12.915406	22.775069	0.615559	-0.638120	2.261472	0.000000	-0.080268	0.000000	0.000008	-0.000001	0.000000	0.000000
36.721789	12.536070	23.086775	0.277013	-0.122047	2.240251	0.000000	-0.021445	0.000000	0.000007	-0.000001	0.000000	0.000000
37.019112	12.378938	23.163235	0.251475	-0.135118	2.233875	0.000000	-0.021445	0.000000	0.000007	-0.000001	0.000000	0.000000
37.352445	12.220831	23.258198	0.222845	-0.149771	2.226727	0.000000	-0.021445	0.000000	0.000007	-0.000001	0.000000	0.000000
37.685779	12.081811	23.362930	0.194215	-0.164424	2.219579	0.000000	-0.021445	0.000000	0.000007	-0.000001	0.000000	0.000000
38.020362	11.961464	23.477878	0.165477	-0.179133	2.212404	0.000000	-0.021445	0.000000	0.000007	-0.000001	0.000000	0.000000
38.317684	11.870657	23.588285	0.169048	-0.250045	2.206028	0.000000	-0.026854	0.000000	0.000006	-0.000001	0.000000	0.000000
38.758644	11.872934	23.547542	-0.174230	0.342089	2.208116	0.000000	0.036333	0.000000	0.000006	-0.000000	0.000000	0.000000
39.199604	12.180307	22.989480	-0.525469	0.918658	2.238132	0.000000	0.099934	0.000000	0.000006	-0.000000	0.000000	0.000000
39.640564	12.806821	21.939489	-0.900715	1.453429	2.296417	0.000000	0.164673	0.000000	0.000006	-0.000000	0.000000	0.000000
40.081524	13.781098	20.445343	-1.317112	1.922070	2.383636	0.000000	0.231288	0.000000	0.000006	0.000000	0.000000	0.000000
40.527484	15.165223	18.552456	-1.797511	2.304539	2.502253	0.000000	0.300942	0.000000	0.000006	0.000000	0.000000	0.000000
41.076544	16.931607	16.425362	-1.400551	1.592392	2.646955	0.000000	0.225372	0.000000	0.000006	0.000000	0.000000	0.000000
41.625604	18.204844	15.013792	-0.904663	0.993668	2.749004	0.000000	0.145805	0.000000	0.000006	-0.000000	0.000000	0.000000
42.174664	18.895000	14.217203	-0.344874	0.465720	2.806591	0.000000	0.063651	0.000000	0.000006	-0.000000	0.000000	0.000000
42.723724	18.953325	13.978854	0.239275	-0.029055	2.818694	0.000000	-0.019631	0.000000	0.000006	-0.000001	0.000000	0.000000
43.022297	18.844886	13.980773	0.173436	-0.013893	2.815031	0.000000	-0.012267	0.000000	0.000006	-0.000001	0.000000	0.000000
43.502297	18.690981	14.010593	0.147199	-0.048232	2.809144	0.000000	-0.012267	0.000000	0.000005	-0.000001	0.000000	0.000000
43.982297	18.562264	14.073379	0.120961	-0.082572	2.803256	0.000000	-0.012267	0.000000	0.000005	-0.000001	0.000000	0.000000
44.462297	18.458735	14.169131	0.094724	-0.116911	2.797368	0.000000	-0.012267	0.000000	0.000005	-0.000001	0.000000	0.000000
44.942297	18.380394	14.297849	0.068487	-0.151251	2.791480	0.000000	-0.012267	0.000000	0.000005	-0.000001	0.000000	0.000000
45.423547	18.327362	14.459818	-0.048623	-0.114037	2.785594	0.000000	0.001534	0.000000	0.000004	-0.000001	0.000000	0.000000
45.720870	18.361110	14.533822	-0.112856	-0.096894	2.786050	0.000000	0.008814	0.000000	0.000004	-0.000000	0.000000	0.000000
46.269930	18.175871	14.921346	0.448233	-0.613067	2.768315	0.000000	-0.073320	0.000000	0.000004	-0.000001	0.000000	0.000000
46.818990	17.388307	15.896199	0.977662	-1.172908	2.705776	0.000000	-0.154153	0.000000	0.000003	-0.000001	0.000000	0.000000
47.368050	16.054047	17.527819	1.438033	-1.816293	2.599540	0.000000	-0.232252	0.000000	0.000003	-0.000001	0.000000	0.000000
47.917110	14.267337	19.932422	1.796829	-2.589048	2.451492	0.000000	-0.306231	0.000000	0.000003	-0.000001	0.000000	0.000000
48.363070	12.876888	22.070356	1.332095	-2.184803	2.330219	0.000000	-0.237928	0.000000	0.000002	-0.000001	0.000000	0.000000
48.804030	11.882291	23.782162	0.931989	-1.682423	2.239763	0.000000	-0.172733	0.000000	0.000002	-0.000001	0.000000	0.000000
49.244990	11.220517	25.015332	0.574463	-1.103494	2.177595	0.000000	-0.109504	0.000000	0.000001	-0.000001	0.000000	0.000000
49.685950	10.861330	25.713759	0.243182	-0.474357	2.143007	0.000000	-0.047523	0.000000	0.000001	-0.000001	0.000000	0.000000
50.128160	10.788449	25.845382	-0.050648	0.112934	2.135616	0.000000	0.008680	0.000000	0.000001	-0.000001	0.000000	0.000000
50.425482	10.826781	25.781690	-0.078278	0.101283	2.138197	0.000000	0.008680	0.000000	0.000000	-0.000001	0.000000	0.000000
50.758816	10.889292	25.718522	-0.109255	0.088221	2.141091	0.000000	0.008680	0.000000	0.000000	-0.000001	0.000000	0.000000
51.092149	10.972454	25.664062	-0.140231	0.075160	2.143984	0.000000	0.008680	0.000000	0.000000	-0.000001	0.000000	0.000000
51.426732	11.076471	25.618674	-0.081464	-0.145782	2.146867	0.000000	-0.008736	0.000000	-0.000000	-0.000001	0.000000	0.000000
51.724055	11.132947	25.708886	-0.081184	-0.220681	2.144270	0.000000	-0.013995	0.000000	-0.000000	-0.000001	0.000000	0.000000
52.165015	11.349894	25.617498	-0.412671	0.427140	2.151688	0.000000	0.047669	0.000000	-0.000001	-0.000001	0.000000	0.000000
52.605975	11.866364	24.961204	-0.763013	1.055526	2.186390	0.000000	0.109876	0.000000	-0.000001	-0.000001	0.000000	0.000000
53.046935	12.705954	23.769865	-1.148214	1.635887	2.248773	0.000000	0.173334	0.000000	-0.000001	-0.000001	0.000000	0.000000
53.487895	13.907021	22.097686	-1.585874	2.141816	2.339547	0.000000	0.238766	0.000000	-0.000002	-0.000001	0.000000	0.000000
53.933855	15.545026	19.995747	-2.100220	2.551631	2.461250	0.000000	0.307317	0.000000	-0.000002	-0.000001	0.000000	0.000000
54.482915	17.653892	17.630559	-1.717910	1.781501	2.609806	0.000000	0.233013	0.000000	-0.000003	-0.000001	0.000000	0.000000
55.031975	19.273413	16.036840	-1.214255	1.138264	2.716368	0.000000	0.154576	0.000000	-0.000003	-0.000001	0.000000	0.000000
55.581035	20.289194	15.101073	-0.624831	0.576103	2.779046	0.000000	0.073397	0.000000	-0.000003	-0.000001	0.000000	0.000000
56.130095	20.629486	14.756605	0.008727	0.054977	2.796729	0.000000	-0.009083	0.000000	-0.000004	-0.000001	0.000000	0.000000
56.428668	20.660792	14.706845	-0.059678	0.073124	2.796199	0.000000	-0.001775	0.000000	-0.000004	-0.000001	0.000000	0.000000
56.762001	20.705975	14.665691	-0.075869	0.050338	2.795607	0.000000	-0.001775	0.000000	-0.000004	-0.000001	0.000000	0.000000
57.095334	20.761951	14.639728	-0.092060	0.027552	2.795015	0.000000	-0.001775	0.000000	-0.000004	-0.000001	0.000000	0.000000
57.429918	20.828992	14.628944	-0.108312	0.004680	2.794422	0.000000	-0.001775	0.000000	-0.000004	-0.000001	0.000000	0.000000
57.727240	20.897693	14.632204	-0.177358	0.022588	2.793894	0.000000	0.005525	0.000000	-0.000005	-0.000001	0.000000	0.000000
58.276300	20.735918	14.888397	0.470254	-0.491944	2.774289	0.000000	-0.076833	0.000000	-0.000005	-0.000000	0.000000	0.000000
58.825360	19.877098	15.725417	1.084650	-1.041515	2.709773	0.000000	-0.157827	0.000000	-0.000005	-0.000000	0.000000	0.000000
59.374420	18.381897	17.202884	1.622431	-1.665271	2.601490	0.000000	-0.236023	0.000000	-0.000005	-0.000000	0.000000	0.000000
59.923480	16.355928	19.426034	2.045612	-2.407641	2.451361	0.000000	-0.310031	0.000000	-0.000005	0.000000	0.000000	0.000000
60.369440	14.770194	21.402012	1.522756	-2.004498	2.328388	0.000000	-0.241754	0.000000	-0.000005	-0.000000	0.000000	0.000000
60.810400	13.629598	22.958360	1.073677	-1.511524	2.236231	0.000000	-0.176627	0.000000	-0.000005	-0.000000	0.000000	0.000000
61.251360	12.862009	24.047841	0.673650	-0.949778	2.172322	0.000000	-0.113512	0.000000	-0.000005	-0.000000	0.000000	0.000000
61.692320	12.432358	24.620886	0.304401	-0.344817	2.135933	0.000000	-0.051690	0.000000	-0.000005	-0.000000	0.000000	0.000000
62.134530	12.321066	24.650883	-0.020826	0.215324	2.126655	0.000000	0.004328	0.000000	-0.000006	-0.000001	0.000000	0.000000
62.431853	12.340628	24.526594	-0.044968	0.202703	2.127943	0.000000	0.004328	0.000000	-0.000006	-0.000001	0.000000	0.000000
62.765186	12.379628	24.396175	-0.072033	0.188554	2.129385	0.000000	0.004328	0.000000	-0.000006	-0.000001	0.000000	0.000000
63.098520	12.436672	24.275188	-0.099099	0.174405	2.130828	0.000000	0.004328	0.000000	-0.000006	-0.000001	0.000000	0.000000
63.433103	12.512075	24.163234	-0.126266	0.160203	2.132277	0.000000	0.004328	0.000000	-0.000006	-0.000001	0.000000	0.000000
63.730426	12.594337	24.071722	-0.119521	0.088548	2.133564	0.000000	-0.000904	0.000000	-0.000006	-0.000001	0.000000	0.000000
64.171386	12.860114	23.728523	-0.485491	0.686792	2.146704	0.000000	0.060557	0.000000	-0.000007	-0.000001	0.000000	0.000000
64.612346	13.457172	22.869537	-0.873642	1.253787	2.187072	0.000000	0.122708	0.000000	-0.000007	-0.000001	0.000000	0.000000
65.053306	14.412788	21.533847	-1.301707	1.763736	2.255129	0.000000	0.186257	0.000000	-0.000007	-0.000001	0.000000	0.000000
65.494266	15.770622	19.782227	-1.789243	2.193437	2.351648	0.000000	0.251927	0.000000	-0.000008	-0.000001	0.000000	0.000000
65.940226	17.615871	17.669584	-2.363217	2.524092	2.479302	0.000000	0.320869	0.000000	-0.000009	-0.000001	0.000000	0.000000
66.489286	19.981267	15.306169	-1.919364	1.805792	2.635117	0.000000	0.245862	0.000000	-0.000009	-0.000001	0.000000	0.000000
67.038346	21.781475	13.656698	-1.339938	1.216113	2.748489	0.000000	0.166495	0.000000	-0.000010	-0.000001	0.000000	0.000000
67.587406	22.889339	12.603684	-0.665865	0.713056	2.817407	0.000000	0.084175	0.000000	-0.000010	-0.000001	0.000000	0.000000
68.136466	23.226603	12.072122	0.055242	0.260789	2.840649	0.000000	0.000361	0.000000	-0.000010	-0.000000	0.000000	0.000000
68.435038	23.233696	11.905572	-0.018306	0.265488	2.842974	0.000000	0.007784	0.000000	-0.000010	-0.000000	0.000000	0.000000
68.768372	23.250684	11.738571	-0.032657	0.235516	2.845568	0.000000	0.007784	0.000000	-0.000011	-0.000000	0.000000	0.000000
69.101705	23.277240	11.591551	-0.047009	0.205545	2.848163	0.000000	0.007784	0.000000	-0.000011	-0.000000	0.000000	0.000000
69.436288	23.313516	11.464073	-0.061415	0.175461	2.850768	0.000000	0.007784	0.000000	-0.000011	-0.000000	0.000000	0.000000
69.733611	23.353842	11.367684	-0.135241	0.178431	2.853082	0.000000	0.015239	0.000000	-0.000011	-0.000000	0.000000	0.000000
70.282671	23.101267	11.399376	0.592532	-0.236491	2.838270	0.000000	-0.069113	0.000000	-0.000011	0.000000	0.000000	0.000000
