#ParticleID	Turn	x[m]	xp	y[m]	yp	z[m]	dE[GeV]# s	beta_x	beta_y	alpha_x	alpha_y	D_x	D_y	D_px	D_py	orbit_x	orbit_px	orbit_y	orbit_py
0.300000	11.824327	24.975953	-0.012311	-0.027641	2.618122	0.000000	0.000008	0.000000	0.000001	0.000000	0.000000	0.000000
0.601250	11.839420	24.996243	-0.037792	-0.039711	2.618124	0.000000	0.000008	0.000000	0.000001	0.000000	0.000000	0.000000
0.898573	11.869370	25.023399	-0.033833	-0.112989	2.618126	0.000000	-0.006412	0.000000	0.000001	0.000000	0.000000	0.000000
1.339533	12.051468	24.845493	-0.380690	0.514906	2.631592	0.000000	0.067545	0.000000	0.000001	0.000001	0.000000	0.000000
1.780493	12.545950	24.122088	-0.744940	1.119374	2.677808	0.000000	0.142272	0.000000	0.000001	0.000001	0.000000	0.000000
2.221453	13.375408	22.886099	-1.143224	1.672910	2.757302	0.000000	0.218619	0.000000	0.000002	0.000001	0.000000	0.000000
2.662413	14.577738	21.193763	-1.593739	2.150331	2.870978	0.000000	0.297457	0.000000	0.000002	0.000001	0.000000	0.000000
3.108373	16.228652	19.097258	-2.121362	2.531044	3.021993	0.000000	0.380171	0.000000	0.000002	0.000001	0.000000	0.000000
3.657433	18.345643	16.742642	-1.711477	1.782719	3.205457	0.000000	0.287133	0.000000	0.000003	0.000001	0.000000	0.000000
4.206493	19.943079	15.135644	-1.180702	1.161373	3.336363	0.000000	0.189002	0.000000	0.000003	0.000001	0.000000	0.000000
4.755553	20.908125	14.161803	-0.566527	0.622749	3.412389	0.000000	0.087519	0.000000	0.000003	0.000000	0.000000	0.000000
5.304613	21.172616	13.751752	0.087664	0.128482	3.432184	0.000000	-0.015517	0.000000	0.000003	0.000000	0.000000	0.000000
5.603185	21.157516	13.660232	0.018228	0.142113	3.430229	0.000000	-0.006549	0.000000	0.000003	0.000000	0.000000	0.000000
5.936519	21.150617	13.573788	0.002468	0.117219	3.428045	0.000000	-0.006549	0.000000	0.000004	0.000000	0.000000	0.000000
6.269852	21.154225	13.503940	-0.013292	0.092324	3.425862	0.000000	-0.006549	0.000000	0.000004	0.000000	0.000000	0.000000
6.604435	21.168412	13.450520	-0.029111	0.067336	3.423671	0.000000	-0.006549	0.000000	0.000004	0.000000	0.000000	0.000000
6.901758	21.189903	13.417081	-0.098532	0.080187	3.421724	0.000000	0.002391	0.000000	0.000004	0.000000	0.000000	0.000000
7.450818	20.936917	13.589649	0.556565	-0.396338	3.394835	0.000000	-0.100191	0.000000	0.000004	0.000000	0.000000	0.000000
7.999878	19.981987	14.297836	1.172349	-0.901093	3.312028	0.000000	-0.200996	0.000000	0.000004	0.000000	0.000000	0.000000
8.548938	18.392564	15.592085	1.705324	-1.470030	3.174772	0.000000	-0.298236	0.000000	0.000004	-0.000000	0.000000	0.000000
9.097998	16.280916	17.564583	2.117843	-2.143675	2.985501	0.000000	-0.390185	0.000000	0.000004	-0.000000	0.000000	0.000000
9.543958	14.633371	19.322218	1.589671	-1.780908	2.829801	0.000000	-0.308478	0.000000	0.000004	-0.000000	0.000000	0.000000
9.984918	13.434938	20.702936	1.138420	-1.338341	2.711021	0.000000	-0.230768	0.000000	0.000004	0.000000	0.000000	0.000000
10.425878	12.610120	21.664901	0.739181	-0.834881	2.625896	0.000000	-0.155687	0.000000	0.000004	0.000000	0.000000	0.000000
10.866838	12.121233	22.164344	0.373712	-0.293435	2.573458	0.000000	-0.082378	0.000000	0.000004	0.000000	0.000000	0.000000
11.309048	11.945806	22.178023	0.054507	0.206917	2.553087	0.000000	-0.016269	0.000000	0.000004	0.000000	0.000000	0.000000
11.606371	11.920816	22.059137	0.029544	0.192937	2.548250	0.000000	-0.016269	0.000000	0.000004	0.000000	0.000000	0.000000
12.086371	11.911798	21.884751	-0.010757	0.170367	2.540441	0.000000	-0.016269	0.000000	0.000004	0.000000	0.000000	0.000000
12.566371	11.941470	21.732032	-0.051058	0.147798	2.532632	0.000000	-0.016269	0.000000	0.000005	0.000000	0.000000	0.000000
13.046371	12.009830	21.600980	-0.091359	0.125228	2.524823	0.000000	-0.016269	0.000000	0.000005	0.000000	0.000000	0.000000
13.526371	12.116879	21.491594	-0.131660	0.102658	2.517014	0.000000	-0.016269	0.000000	0.000005	0.000000	0.000000	0.000000
14.007621	12.263047	21.403676	-0.172066	0.080030	2.509184	0.000000	-0.016269	0.000000	0.000005	0.000000	0.000000	0.000000
14.304943	12.372787	21.360243	-0.166689	0.013671	2.504347	0.000000	-0.022410	0.000000	0.000005	0.000000	0.000000	0.000000
14.745903	12.678443	21.114380	-0.529101	0.541771	2.510097	0.000000	0.048515	0.000000	0.000005	0.000000	0.000000	0.000000
15.186863	13.313129	20.411906	-0.915687	1.045221	2.547214	0.000000	0.119993	0.000000	0.000005	0.000001	0.000000	0.000000
15.627823	14.305843	19.284785	-1.344109	1.501115	2.616121	0.000000	0.192837	0.000000	0.000006	0.000001	0.000000	0.000000
16.068783	15.701938	17.784298	-1.833938	1.888709	2.717602	0.000000	0.267877	0.000000	0.000006	0.000001	0.000000	0.000000
16.514743	17.588853	15.957214	-2.412313	2.191116	2.854509	0.000000	0.346431	0.000000	0.000006	0.000001	0.000000	0.000000
17.063803	20.012171	13.917019	-1.975134	1.546612	3.020988	0.000000	0.259095	0.000000	0.000007	0.000001	0.000000	0.000000
17.612863	21.875497	12.520285	-1.398442	1.012269	3.138181	0.000000	0.167163	0.000000	0.000007	0.000001	0.000000	0.000000
18.161923	23.047216	11.667523	-0.722970	0.550029	3.204008	0.000000	0.072266	0.000000	0.000008	0.000000	0.000000	0.000000
18.710983	23.444563	11.297994	0.003568	0.126965	3.217302	0.000000	-0.023913	0.000000	0.000008	0.000000	0.000000	0.000000
19.009556	23.482824	11.212635	-0.070462	0.129409	3.212672	0.000000	-0.015507	0.000000	0.000008	0.000000	0.000000	0.000000
19.342889	23.534554	11.136438	-0.084727	0.099182	3.207503	0.000000	-0.015507	0.000000	0.000008	0.000000	0.000000	0.000000
19.676223	23.595794	11.080392	-0.098993	0.068956	3.202334	0.000000	-0.015507	0.000000	0.000008	0.000000	0.000000	0.000000
20.010806	23.667121	11.044263	-0.230571	0.093337	3.197166	0.000000	0.000334	0.000000	0.000008	0.000000	0.000000	0.000000
20.308129	23.808162	10.996835	-0.306004	0.094912	3.197265	0.000000	0.008687	0.000000	0.000008	0.000000	0.000000	0.000000
20.857189	23.733567	11.115021	0.441060	-0.311434	3.175813	0.000000	-0.086710	0.000000	0.000008	-0.000000	0.000000	0.000000
21.406249	22.850928	11.688913	1.156970	-0.739963	3.102329	0.000000	-0.180569	0.000000	0.000008	-0.000000	0.000000	0.000000
21.955309	21.222590	12.759389	1.791157	-1.221197	2.978115	0.000000	-0.271226	0.000000	0.000008	-0.000001	0.000000	0.000000
22.504369	18.963570	14.402696	2.298826	-1.789415	2.805375	0.000000	-0.357072	0.000000	0.000007	-0.000001	0.000000	0.000000
22.950329	17.183352	15.877978	1.707145	-1.504732	2.663430	0.000000	-0.279858	0.000000	0.000007	-0.000001	0.000000	0.000000
23.391289	15.907072	17.054161	1.198155	-1.152442	2.556347	0.000000	-0.206286	0.000000	0.000007	-0.000000	0.000000	0.000000
23.832249	15.053937	17.895256	0.743906	-0.747717	2.481158	0.000000	-0.135064	0.000000	0.000006	-0.000000	0.000000	0.000000
24.273209	14.584969	18.362993	0.323644	-0.308971	2.437006	0.000000	-0.065380	0.000000	0.000006	-0.000000	0.000000	0.000000
24.715418	14.478858	18.435844	-0.046414	0.098556	2.423386	0.000000	-0.002383	0.000000	0.000006	-0.000000	0.000000	0.000000
25.012741	14.512577	18.382080	-0.066993	0.082272	2.422677	0.000000	-0.002383	0.000000	0.000006	-0.000000	0.000000	0.000000
25.346075	14.564930	18.333317	-0.090065	0.064016	2.421883	0.000000	-0.002383	0.000000	0.000006	-0.000000	0.000000	0.000000
25.679408	14.632664	18.296725	-0.113137	0.045760	2.421088	0.000000	-0.002383	0.000000	0.000006	-0.000000	0.000000	0.000000
26.013991	14.715821	18.272606	-0.016911	-0.120801	2.420266	0.000000	-0.022018	0.000000	0.000006	-0.000000	0.000000	0.000000
26.311314	14.731886	18.349348	-0.000996	-0.182306	2.413720	0.000000	-0.027937	0.000000	0.000006	-0.000000	0.000000	0.000000
26.752274	14.914284	18.311093	-0.414213	0.268731	2.416512	0.000000	0.040614	0.000000	0.000006	0.000000	0.000000	0.000000
27.193234	15.468043	17.878952	-0.846354	0.707540	2.449605	0.000000	0.109627	0.000000	0.000006	0.000000	0.000000	0.000000
27.634194	16.418462	17.072588	-1.317163	1.114157	2.513377	0.000000	0.179888	0.000000	0.000006	0.000000	0.000000	0.000000
28.075154	17.808963	15.928690	-1.848149	1.470080	2.608553	0.000000	0.252199	0.000000	0.000007	0.000001	0.000000	0.000000
28.521114	19.727235	14.482076	-2.468532	1.760029	2.737820	0.000000	0.327825	0.000000	0.000007	0.000001	0.000000	0.000000
29.070174	22.165372	12.870164	-1.945745	1.193065	2.895149	0.000000	0.244418	0.000000	0.000007	0.000001	0.000000	0.000000
29.619234	23.950096	11.830809	-1.285521	0.711080	3.005423	0.000000	0.156675	0.000000	0.000008	0.000000	0.000000	0.000000
30.168294	24.955344	11.289980	-0.534494	0.279744	3.066687	0.000000	0.066154	0.000000	0.000008	0.000000	0.000000	0.000000
30.717354	25.110110	11.209154	0.254287	-0.131667	3.077853	0.000000	-0.025541	0.000000	0.000008	-0.000000	0.000000	0.000000
31.015927	25.001115	11.278326	0.176370	-0.129297	3.072628	0.000000	-0.017499	0.000000	0.000008	-0.000000	0.000000	0.000000
31.349260	24.888118	11.374540	0.162622	-0.159346	3.066795	0.000000	-0.017499	0.000000	0.000008	-0.000000	0.000000	0.000000
31.682593	24.784286	11.490788	0.148875	-0.189395	3.060962	0.000000	-0.017499	0.000000	0.000007	-0.000000	0.000000	0.000000
32.017177	24.689280	11.627616	0.135076	-0.219557	3.055107	0.000000	-0.017499	0.000000	0.000007	-0.000000	0.000000	0.000000
32.314499	24.612604	11.766144	0.058509	-0.215619	3.049904	0.000000	-0.009531	0.000000	0.000007	-0.000000	0.000000	0.000000
32.863559	24.126702	12.242212	0.821222	-0.656559	3.019786	0.000000	-0.100013	0.000000	0.000007	-0.000000	0.000000	0.000000
33.412619	22.830302	13.225170	1.525928	-1.144263	2.940403	0.000000	-0.188722	0.000000	0.000007	-0.000001	0.000000	0.000000
33.961679	20.814973	14.785030	2.122850	-1.713471	2.813163	0.000000	-0.274082	0.000000	0.000006	-0.000001	0.000000	0.000000
34.510739	18.223070	17.032899	2.569824	-2.404726	2.640322	0.000000	-0.354582	0.000000	0.000006	-0.000001	0.000000	0.000000
34.956699	16.207838	19.043492	1.965228	-2.084909	2.498536	0.000000	-0.281647	0.000000	0.000006	-0.000001	0.000000	0.000000
35.397659	14.705168	20.706015	1.455424	-1.670978	2.389723	0.000000	-0.212349	0.000000	0.000005	-0.000001	0.000000	0.000000
35.838619	13.621194	21.968436	1.012115	-1.181019	2.310907	0.000000	-0.145469	0.000000	0.000005	-0.000001	0.000000	0.000000
36.279579	12.906393	22.773315	0.615046	-0.637324	2.261189	0.000000	-0.080246	0.000000	0.000005	-0.000001	0.000000	0.000000
36.721789	12.527416	23.084335	0.276690	-0.121293	2.239976	0.000000	-0.021430	0.000000	0.000004	-0.000000	0.000000	0.000000
37.019112	12.370480	23.160347	0.251139	-0.134362	2.233605	0.000000	-0.021430	0.000000	0.000004	-0.000000	0.000000	0.000000
37.352445	12.212602	23.254805	0.222494	-0.149014	2.226462	0.000000	-0.021430	0.000000	0.000004	-0.000000	0.000000	0.000000
37.685779	12.073821	23.359032	0.193849	-0.163667	2.219318	0.000000	-0.021430	0.000000	0.000004	-0.000000	0.000000	0.000000
38.020362	11.953724	23.473473	0.165096	-0.178374	2.212149	0.000000	-0.021430	0.000000	0.000004	-0.000000	0.000000	0.000000
38.317684	11.863148	23.583428	0.168636	-0.249275	2.205777	0.000000	-0.026839	0.000000	0.000004	-0.000000	0.000000	0.000000
38.758644	11.865713	23.542065	-0.174476	0.342720	2.207871	0.000000	0.036342	0.000000	0.000004	-0.000000	0.000000	0.000000
39.199604	12.173234	22.983518	-0.525559	0.919121	2.237889	0.000000	0.099937	0.000000	0.000003	-0.000000	0.000000	0.000000
39.640564	12.799760	21.933201	-0.900654	1.453703	2.296174	0.000000	0.164670	0.000000	0.000003	-0.000000	0.000000	0.000000
40.081524	13.773916	20.438902	-1.316897	1.922142	2.383390	0.000000	0.231278	0.000000	0.000003	-0.000000	0.000000	0.000000
40.527484	15.157776	18.546044	-1.797130	2.304406	2.502001	0.000000	0.300926	0.000000	0.000003	0.000000	0.000000	0.000000
41.076544	16.923892	16.419010	-1.400447	1.592416	2.646697	0.000000	0.225364	0.000000	0.000003	-0.000000	0.000000	0.000000
41.625604	18.197172	15.007327	-0.904843	0.993851	2.748744	0.000000	0.145805	0.000000	0.000003	-0.000000	0.000000	0.000000
42.174664	18.887677	14.210443	-0.345326	0.466076	2.806333	0.000000	0.063660	0.000000	0.000003	-0.000000	0.000000	0.000000
42.723724	18.946634	13.971599	0.238584	-0.028502	2.818443	0.000000	-0.019614	0.000000	0.000003	-0.000000	0.000000	0.000000
43.022297	18.838599	13.973202	0.172759	-0.013369	2.814786	0.000000	-0.012250	0.000000	0.000003	-0.000000	0.000000	0.000000
43.502297	18.685346	14.002528	0.146519	-0.047727	2.808906	0.000000	-0.012250	0.000000	0.000003	-0.000000	0.000000	0.000000
43.982297	18.557283	14.064838	0.120279	-0.082085	2.803026	0.000000	-0.012250	0.000000	0.000002	-0.000000	0.000000	0.000000
44.462297	18.454411	14.160130	0.094039	-0.116442	2.797146	0.000000	-0.012250	0.000000	0.000002	-0.000000	0.000000	0.000000
44.942297	18.376729	14.288407	0.067798	-0.150800	2.791266	0.000000	-0.012250	0.000000	0.000002	-0.000000	0.000000	0.000000
45.423547	18.324361	14.449950	-0.049299	-0.113653	2.785388	0.000000	0.001550	0.000000	0.000002	-0.000000	0.000000	0.000000
45.720870	18.358512	14.523730	-0.113531	-0.096548	2.785849	0.000000	0.008829	0.000000	0.000002	-0.000000	0.000000	0.000000
46.269930	18.174056	14.910703	0.447491	-0.612404	2.768124	0.000000	-0.073298	0.000000	0.000002	-0.000000	0.000000	0.000000
46.818990	17.387321	15.884633	0.976904	-1.171880	2.705598	0.000000	-0.154126	0.000000	0.000001	-0.000000	0.000000	0.000000
47.368050	16.053877	17.514891	1.437313	-1.814827	2.599378	0.000000	-0.232219	0.000000	0.000001	-0.000001	0.000000	0.000000
47.917110	14.267913	19.917598	1.796198	-2.587040	2.451350	0.000000	-0.306193	0.000000	0.000001	-0.000001	0.000000	0.000000
48.363070	12.878004	22.053880	1.331511	-2.183121	2.330093	0.000000	-0.237894	0.000000	0.000001	-0.000001	0.000000	0.000000
48.804030	11.883911	23.764374	0.931424	-1.681142	2.239651	0.000000	-0.172701	0.000000	0.000000	-0.000001	0.000000	0.000000
49.244990	11.222635	24.996615	0.573892	-1.102673	2.177496	0.000000	-0.109475	0.000000	0.000000	-0.000001	0.000000	0.000000
49.685950	10.863965	25.694535	0.242580	-0.474033	2.142920	0.000000	-0.047496	0.000000	-0.000000	-0.000000	0.000000	0.000000
50.128160	10.791640	25.826098	-0.051302	0.112792	2.135540	0.000000	0.008705	0.000000	-0.000000	-0.000001	0.000000	0.000000
50.425482	10.830360	25.762493	-0.078926	0.101133	2.138129	0.000000	0.008705	0.000000	-0.000000	-0.000001	0.000000	0.000000
50.758816	10.893301	25.699428	-0.109896	0.088062	2.141031	0.000000	0.008705	0.000000	-0.000001	-0.000001	0.000000	0.000000
51.092149	10.976888	25.645077	-0.140865	0.074991	2.143932	0.000000	0.008705	0.000000	-0.000001	-0.000001	0.000000	0.000000
51.426732	11.081326	25.599804	-0.082052	-0.145807	2.146823	0.000000	-0.008711	0.000000	-0.000001	-0.000000	0.000000	0.000000
51.724055	11.138148	25.690034	-0.081749	-0.220669	2.144233	0.000000	-0.013970	0.000000	-0.000001	-0.000000	0.000000	0.000000
52.165015	11.355650	25.598856	-0.413370	0.426655	2.151662	0.000000	0.047693	0.000000	-0.000001	-0.000001	0.000000	0.000000
52.605975	11.872807	24.943202	-0.763876	1.054565	2.186375	0.000000	0.109899	0.000000	-0.000002	-0.000001	0.000000	0.000000
53.046935	12.713244	23.752905	-1.149282	1.634494	2.248768	0.000000	0.173357	0.000000	-0.000002	-0.000001	0.000000	0.000000
53.487895	13.915361	22.082122	-1.587195	2.140055	2.339552	0.000000	0.238789	0.000000	-0.000002	-0.000001	0.000000	0.000000
53.933855	15.554680	19.981890	-2.101857	2.549580	2.461265	0.000000	0.307340	0.000000	-0.000002	-0.000001	0.000000	0.000000
54.482915	17.665220	17.618654	-1.719303	1.779975	2.609834	0.000000	0.233036	0.000000	-0.000003	-0.000001	0.000000	0.000000
55.031975	19.286091	16.026374	-1.215306	1.137155	2.716408	0.000000	0.154598	0.000000	-0.000003	-0.000001	0.000000	0.000000
55.581035	20.302803	15.091633	-0.625466	0.575332	2.779097	0.000000	0.073418	0.000000	-0.000003	-0.000000	0.000000	0.000000
56.130095	20.643542	14.747854	0.008554	0.054488	2.796791	0.000000	-0.009065	0.000000	-0.000004	-0.000000	0.000000	0.000000
56.428668	20.674970	14.698403	-0.059878	0.072602	2.796266	0.000000	-0.001757	0.000000	-0.000004	-0.000000	0.000000	0.000000
56.762001	20.720283	14.657601	-0.076059	0.049804	2.795681	0.000000	-0.001757	0.000000	-0.000004	-0.000000	0.000000	0.000000
57.095334	20.776382	14.631998	-0.092239	0.027006	2.795095	0.000000	-0.001757	0.000000	-0.000004	-0.000000	0.000000	0.000000
57.429918	20.843539	14.621582	-0.108480	0.004123	2.794507	0.000000	-0.001757	0.000000	-0.000004	-0.000000	0.000000	0.000000
57.727240	20.912337	14.625176	-0.177554	0.022002	2.793985	0.000000	0.005544	0.000000	-0.000004	-0.000000	0.000000	0.000000
58.276300	20.750507	14.881903	0.470550	-0.492338	2.774390	0.000000	-0.076817	0.000000	-0.000004	-0.000000	0.000000	0.000000
58.825360	19.891101	15.719264	1.085417	-1.041746	2.709881	0.000000	-0.157815	0.000000	-0.000004	-0.000000	0.000000	0.000000
59.374420	18.394823	17.196903	1.623615	-1.665356	2.601604	0.000000	-0.236014	0.000000	-0.000004	0.000000	0.000000	0.000000
59.923480	16.367362	19.420069	2.047130	-2.407585	2.451478	0.000000	-0.310026	0.000000	-0.000004	0.000000	0.000000	0.000000
60.369440	14.780429	21.396084	1.523938	-2.004638	2.328509	0.000000	-0.241746	0.000000	-0.000004	0.000000	0.000000	0.000000
60.810400	13.638916	22.952639	1.074581	-1.511854	2.236356	0.000000	-0.176616	0.000000	-0.000004	-0.000000	0.000000	0.000000
61.251360	12.870637	24.042490	0.674317	-0.950281	2.172452	0.000000	-0.113498	0.000000	-0.000004	-0.000000	0.000000	0.000000
61.692320	12.440490	24.616047	0.304862	-0.345472	2.136070	0.000000	-0.051672	0.000000	-0.000004	-0.000000	0.000000	0.000000
62.134530	12.328874	24.646680	-0.020532	0.214559	2.126801	0.000000	0.004349	0.000000	-0.000004	-0.000000	0.000000	0.000000
62.431853	12.348257	24.522845	-0.044658	0.201940	2.128094	0.000000	0.004349	0.000000	-0.000004	-0.000000	0.000000	0.000000
62.765186	12.387045	24.392934	-0.071706	0.187793	2.129544	0.000000	0.004349	0.000000	-0.000005	-0.000000	0.000000	0.000000
63.098520	12.443865	24.272455	-0.098754	0.173646	2.130994	0.000000	0.004349	0.000000	-0.000005	-0.000000	0.000000	0.000000
63.433103	12.519032	24.161008	-0.125904	0.159446	2.132450	0.000000	0.004349	0.000000	-0.000005	-0.000000	0.000000	0.000000
63.730426	12.601073	24.069946	-0.119127	0.087798	2.133743	0.000000	-0.000883	0.000000	-0.000005	-0.000000	0.000000	0.000000
64.171386	12.866568	23.727422	-0.485241	0.686014	2.146893	0.000000	0.060583	0.000000	-0.000005	-0.000000	0.000000	0.000000
64.612346	13.463464	22.869121	-0.873524	1.253017	2.187274	0.000000	0.122739	0.000000	-0.000005	-0.000001	0.000000	0.000000
65.053306	14.419033	21.534094	-1.301716	1.763009	2.255345	0.000000	0.186293	0.000000	-0.000006	-0.000001	0.000000	0.000000
65.494266	15.776931	19.783083	-1.789379	2.192786	2.351881	0.000000	0.251969	0.000000	-0.000006	-0.000001	0.000000	0.000000
65.940226	17.622361	17.670976	-2.363488	2.523548	2.479555	0.000000	0.320917	0.000000	-0.000006	-0.000001	0.000000	0.000000
66.489286	19.987917	15.308133	-1.919383	1.805287	2.635394	0.000000	0.245902	0.000000	-0.000007	-0.000001	0.000000	0.000000
67.038346	21.788006	13.659211	-1.339703	1.215613	2.748785	0.000000	0.166526	0.000000	-0.000007	-0.000001	0.000000	0.000000
67.587406	22.895479	12.606760	-0.665392	0.712524	2.817717	0.000000	0.084195	0.000000	-0.000007	-0.000000	0.000000	0.000000
68.136466	23.232109	12.075818	0.055918	0.260187	2.840967	0.000000	0.000372	0.000000	-0.000008	-0.000000	0.000000	0.000000
68.435038	23.238805	11.909617	-0.017639	0.264911	2.843295	0.000000	0.007795	0.000000	-0.000008	-0.000000	0.000000	0.000000
68.768372	23.255348	11.742993	-0.031988	0.234959	2.845893	0.000000	0.007795	0.000000	-0.000008	-0.000000	0.000000	0.000000
69.101705	23.281456	11.596339	-0.046336	0.205006	2.848492	0.000000	0.007795	0.000000	-0.000008	-0.000000	0.000000	0.000000
69.436288	23.317281	11.469215	-0.060738	0.174941	2.851100	0.000000	0.007795	0.000000	-0.000008	-0.000000	0.000000	0.000000
69.733611	23.357204	11.373131	-0.134568	0.177942	2.853418	0.000000	0.015251	0.000000	-0.000008	-0.000000	0.000000	0.000000
70.282671	23.103834	11.405445	0.593297	-0.237143	2.838609	0.000000	-0.069113	0.000000	-0.000008	0.000000	0.000000	0.000000
