#ParticleID	Turn	x[m]	xp	y[m]	yp	z[m]	dE[GeV]# s	beta_x	beta_y	alpha_x	alpha_y	D_x	D_y	D_px	D_py	orbit_x	orbit_px	orbit_y	orbit_py
0.300000	11.803527	25.058960	-0.010054	-0.026786	2.618291	0.000000	-0.000055	0.000000	-0.000003	0.000002	0.000000	0.000000
0.601250	11.817274	25.078723	-0.035579	-0.038817	2.618274	0.000000	-0.000055	0.000000	-0.000002	0.000002	0.000000	0.000000
0.898573	11.845921	25.105335	-0.031721	-0.112256	2.618257	0.000000	-0.006476	0.000000	-0.000001	0.000002	0.000000	0.000000
1.339533	12.025904	24.925829	-0.377989	0.517789	2.631695	0.000000	0.067485	0.000000	-0.000001	0.000002	0.000000	0.000000
1.780493	12.517700	24.198979	-0.741526	1.124274	2.677885	0.000000	0.142214	0.000000	0.000000	0.000002	0.000000	0.000000
2.221453	13.343777	22.957856	-1.138942	1.679606	2.757352	0.000000	0.218563	0.000000	0.000001	0.000002	0.000000	0.000000
2.662413	14.541878	21.258932	-1.588392	2.158518	2.871003	0.000000	0.297401	0.000000	0.000002	0.000002	0.000000	0.000000
3.108373	16.187454	19.154593	-2.114697	2.540352	3.021992	0.000000	0.380116	0.000000	0.000003	0.000002	0.000000	0.000000
3.657433	18.297676	16.791051	-1.705886	1.789764	3.205426	0.000000	0.287079	0.000000	0.000004	0.000002	0.000000	0.000000
4.206493	19.889747	15.177324	-1.176579	1.166656	3.336302	0.000000	0.188949	0.000000	0.000005	0.000002	0.000000	0.000000
4.755553	20.851212	14.198471	-0.564165	0.626647	3.412297	0.000000	0.087468	0.000000	0.000006	0.000002	0.000000	0.000000
5.304613	21.114158	13.784769	0.088099	0.131273	3.432065	0.000000	-0.015564	0.000000	0.000007	0.000001	0.000000	0.000000
5.603185	21.098718	13.691522	0.018779	0.145022	3.430095	0.000000	-0.006597	0.000000	0.000007	0.000001	0.000000	0.000000
5.936519	21.091467	13.603126	0.002974	0.120164	3.427896	0.000000	-0.006597	0.000000	0.000008	0.000001	0.000000	0.000000
6.269852	21.094752	13.531303	-0.012830	0.095306	3.425696	0.000000	-0.006597	0.000000	0.000008	0.000001	0.000000	0.000000
6.604435	21.108645	13.475876	-0.028694	0.070355	3.423488	0.000000	-0.006597	0.000000	0.000009	0.000001	0.000000	0.000000
6.901758	21.129899	13.440632	-0.097995	0.083298	3.421526	0.000000	0.002342	0.000000	0.000009	0.000001	0.000000	0.000000
7.450818	20.877430	13.610134	0.555094	-0.393832	3.394612	0.000000	-0.100233	0.000000	0.000010	0.000001	0.000000	0.000000
7.999878	19.925177	14.315818	1.168974	-0.899014	3.311783	0.000000	-0.201031	0.000000	0.000011	0.000001	0.000000	0.000000
8.548938	18.340402	15.607951	1.700283	-1.468231	3.174510	0.000000	-0.298262	0.000000	0.000011	0.000000	0.000000	0.000000
9.097998	16.235045	17.578567	2.111493	-2.142026	2.985227	0.000000	-0.390203	0.000000	0.000011	0.000000	0.000000	0.000000
9.543958	14.592536	19.334452	1.584688	-1.778645	2.829517	0.000000	-0.308503	0.000000	0.000011	0.000000	0.000000	0.000000
9.984918	13.397984	20.712944	1.134568	-1.335574	2.710724	0.000000	-0.230801	0.000000	0.000011	0.000001	0.000000	0.000000
10.425878	12.576132	21.672291	0.736282	-0.831735	2.625583	0.000000	-0.155727	0.000000	0.000012	0.000001	0.000000	0.000000
10.866838	12.089432	22.168844	0.371635	-0.290053	2.573125	0.000000	-0.082427	0.000000	0.000012	0.000001	0.000000	0.000000
11.309048	11.915514	22.179484	0.053079	0.210382	2.552730	0.000000	-0.016325	0.000000	0.000013	0.000002	0.000000	0.000000
11.606371	11.891391	22.058544	0.028056	0.196383	2.547876	0.000000	-0.016325	0.000000	0.000013	0.000002	0.000000	0.000000
12.086371	11.883848	21.880863	-0.012341	0.173784	2.540039	0.000000	-0.016325	0.000000	0.000014	0.000002	0.000000	0.000000
12.566371	11.915087	21.724878	-0.052739	0.151184	2.532203	0.000000	-0.016325	0.000000	0.000015	0.000002	0.000000	0.000000
13.046371	11.985106	21.590589	-0.093136	0.128585	2.524366	0.000000	-0.016325	0.000000	0.000016	0.000002	0.000000	0.000000
13.526371	12.093907	21.477995	-0.133533	0.105985	2.516529	0.000000	-0.016325	0.000000	0.000017	0.000002	0.000000	0.000000
14.007621	12.241924	21.386889	-0.174035	0.083327	2.508672	0.000000	-0.016325	0.000000	0.000017	0.000002	0.000000	0.000000
14.304943	12.352853	21.341501	-0.168770	0.017002	2.503818	0.000000	-0.022464	0.000000	0.000018	0.000002	0.000000	0.000000
14.745903	12.660169	21.092944	-0.530797	0.544525	2.509541	0.000000	0.048447	0.000000	0.000019	0.000002	0.000000	0.000000
15.186863	13.296210	20.388343	-0.917075	1.047273	2.546624	0.000000	0.119910	0.000000	0.000020	0.000003	0.000000	0.000000
15.627823	14.290036	19.259757	-1.345251	1.502370	2.615490	0.000000	0.192738	0.000000	0.000021	0.000003	0.000000	0.000000
16.068783	15.687051	17.758537	-1.834888	1.889111	2.716923	0.000000	0.267762	0.000000	0.000022	0.000004	0.000000	0.000000
16.514743	17.574744	15.931486	-2.413114	2.190641	2.853773	0.000000	0.346297	0.000000	0.000024	0.000004	0.000000	0.000000
17.063803	19.999340	13.891500	-1.976646	1.546705	3.020184	0.000000	0.258986	0.000000	0.000026	0.000003	0.000000	0.000000
17.612863	21.864671	12.494349	-1.400557	1.012938	3.137323	0.000000	0.167081	0.000000	0.000028	0.000003	0.000000	0.000000
18.161923	23.038979	11.640517	-0.725540	0.551320	3.203113	0.000000	0.072213	0.000000	0.000029	0.000002	0.000000	0.000000
18.710983	23.439316	11.269187	0.000726	0.128972	3.216385	0.000000	-0.023937	0.000000	0.000030	0.000001	0.000000	0.000000
19.009556	23.479261	11.182703	-0.073287	0.131249	3.211746	0.000000	-0.015535	0.000000	0.000030	0.000001	0.000000	0.000000
19.342889	23.532877	11.105311	-0.087560	0.100928	3.206568	0.000000	-0.015535	0.000000	0.000030	0.000001	0.000000	0.000000
19.676223	23.596008	11.048133	-0.101833	0.070606	3.201389	0.000000	-0.015535	0.000000	0.000030	0.000001	0.000000	0.000000
20.010806	23.669238	11.010932	-0.233430	0.094726	3.196211	0.000000	0.000301	0.000000	0.000031	0.000001	0.000000	0.000000
20.308129	23.811984	10.962704	-0.308877	0.096118	3.196300	0.000000	0.008650	0.000000	0.000031	0.000001	0.000000	0.000000
20.857189	23.740458	11.079035	0.438376	-0.309242	3.174837	0.000000	-0.086716	0.000000	0.000031	-0.000000	0.000000	0.000000
21.406249	22.860575	11.649912	1.154663	-0.736629	3.101358	0.000000	-0.180544	0.000000	0.000031	-0.000001	0.000000	0.000000
21.955309	21.234486	12.715996	1.789391	-1.216484	2.977167	0.000000	-0.271169	0.000000	0.000030	-0.000002	0.000000	0.000000
22.504369	18.977050	14.353222	2.297724	-1.782987	2.804467	0.000000	-0.356985	0.000000	0.000029	-0.000003	0.000000	0.000000
22.950329	17.197877	15.823267	1.705890	-1.499468	2.662557	0.000000	-0.279794	0.000000	0.000027	-0.000002	0.000000	0.000000
23.391289	15.922792	16.995411	1.196690	-1.148578	2.555498	0.000000	-0.206244	0.000000	0.000027	-0.000002	0.000000	0.000000
23.832249	15.071066	17.833782	0.742163	-0.745427	2.480323	0.000000	-0.135044	0.000000	0.000026	-0.000001	0.000000	0.000000
24.273209	14.603785	18.300235	0.321544	-0.308361	2.436175	0.000000	-0.065381	0.000000	0.000026	-0.000000	0.000000	0.000000
24.715418	14.499725	18.373304	-0.048922	0.097621	2.422549	0.000000	-0.002403	0.000000	0.000026	0.000000	0.000000	0.000000
25.012741	14.534927	18.320111	-0.069477	0.081285	2.421835	0.000000	-0.002403	0.000000	0.000026	0.000000	0.000000	0.000000
25.346075	14.588927	18.272026	-0.092521	0.062969	2.421034	0.000000	-0.002403	0.000000	0.000026	0.000000	0.000000	0.000000
25.679408	14.658288	18.236152	-0.115565	0.044654	2.420233	0.000000	-0.002403	0.000000	0.000026	0.000000	0.000000	0.000000
26.013991	14.743060	18.212791	-0.019090	-0.121481	2.419404	0.000000	-0.022031	0.000000	0.000026	0.000000	0.000000	0.000000
26.311314	14.760410	18.289954	-0.003076	-0.182888	2.412854	0.000000	-0.027946	0.000000	0.000026	0.000000	0.000000	0.000000
26.752274	14.944958	18.252921	-0.417024	0.266551	2.415637	0.000000	0.040582	0.000000	0.000027	0.000001	0.000000	0.000000
27.193234	15.501565	17.823373	-0.850026	0.703861	2.448711	0.000000	0.109572	0.000000	0.000027	0.000002	0.000000	0.000000
27.634194	16.455662	17.020855	-1.321862	1.109146	2.512452	0.000000	0.179810	0.000000	0.000028	0.000002	0.000000	0.000000
28.075154	17.850838	15.881881	-1.854090	1.463966	2.607587	0.000000	0.252096	0.000000	0.000029	0.000003	0.000000	0.000000
28.521114	19.775070	14.441112	-2.476001	1.753088	2.736802	0.000000	0.327697	0.000000	0.000031	0.000004	0.000000	0.000000
29.070174	22.220767	12.835914	-1.951962	1.187705	2.894069	0.000000	0.244324	0.000000	0.000032	0.000003	0.000000	0.000000
29.619234	24.011425	11.801755	-1.290046	0.706920	3.004301	0.000000	0.156617	0.000000	0.000034	0.000002	0.000000	0.000000
30.168294	25.020561	11.264974	-0.537007	0.276487	3.065542	0.000000	0.066132	0.000000	0.000034	0.000001	0.000000	0.000000
30.717354	25.176895	11.187337	0.253963	-0.134252	3.076706	0.000000	-0.025525	0.000000	0.000034	-0.000001	0.000000	0.000000
31.015927	25.068179	11.258112	0.175920	-0.132013	3.071484	0.000000	-0.017489	0.000000	0.000034	-0.000000	0.000000	0.000000
31.349260	24.955468	11.356162	0.162212	-0.162137	3.065655	0.000000	-0.017489	0.000000	0.000034	-0.000000	0.000000	0.000000
31.682593	24.851897	11.474295	0.148503	-0.192262	3.059825	0.000000	-0.017489	0.000000	0.000034	-0.000000	0.000000	0.000000
32.017177	24.757128	11.613067	0.134743	-0.222499	3.053974	0.000000	-0.017489	0.000000	0.000033	-0.000000	0.000000	0.000000
32.314499	24.680639	11.753364	0.058047	-0.218668	3.048774	0.000000	-0.009525	0.000000	0.000033	-0.000000	0.000000	0.000000
32.863559	24.194002	12.232656	0.823015	-0.659416	3.018670	0.000000	-0.099971	0.000000	0.000033	-0.000001	0.000000	0.000000
33.412619	22.894445	13.218738	1.529848	-1.147132	2.939321	0.000000	-0.188644	0.000000	0.000032	-0.000003	0.000000	0.000000
33.961679	20.873763	14.781849	2.128620	-1.716556	2.812134	0.000000	-0.273971	0.000000	0.000030	-0.000004	0.000000	0.000000
34.510739	18.274686	17.033324	2.577037	-2.408246	2.639365	0.000000	-0.354438	0.000000	0.000028	-0.000004	0.000000	0.000000
34.956699	16.253739	19.047222	1.970874	-2.088772	2.497639	0.000000	-0.281527	0.000000	0.000026	-0.000004	0.000000	0.000000
35.397659	14.746677	20.713237	1.459774	-1.675003	2.388875	0.000000	-0.212251	0.000000	0.000025	-0.000003	0.000000	0.000000
35.838619	13.659362	21.979212	1.015368	-1.185023	2.310098	0.000000	-0.145393	0.000000	0.000023	-0.000002	0.000000	0.000000
36.279579	12.942119	22.787547	0.617351	-0.641126	2.260410	0.000000	-0.080190	0.000000	0.000022	-0.000002	0.000000	0.000000
36.721789	12.561483	23.101775	0.278231	-0.124752	2.239218	0.000000	-0.021391	0.000000	0.000022	-0.000001	0.000000	0.000000
37.019112	12.403616	23.179844	0.252729	-0.137822	2.232858	0.000000	-0.021391	0.000000	0.000021	-0.000001	0.000000	0.000000
37.352445	12.244660	23.276610	0.224139	-0.152476	2.225728	0.000000	-0.021391	0.000000	0.000021	-0.000001	0.000000	0.000000
37.685779	12.104764	23.383145	0.195549	-0.167129	2.218599	0.000000	-0.021391	0.000000	0.000020	-0.000001	0.000000	0.000000
38.020362	11.983511	23.499903	0.166851	-0.181837	2.211442	0.000000	-0.021391	0.000000	0.000020	-0.000001	0.000000	0.000000
38.317684	11.891876	23.611918	0.170506	-0.252801	2.205082	0.000000	-0.026797	0.000000	0.000019	-0.000001	0.000000	0.000000
38.758644	11.893077	23.573322	-0.173241	0.339997	2.207191	0.000000	0.036366	0.000000	0.000019	-0.000001	0.000000	0.000000
39.199604	12.199767	23.016775	-0.524903	0.917325	2.237216	0.000000	0.099943	0.000000	0.000019	-0.000000	0.000000	0.000000
39.640564	12.825958	21.967600	-0.900546	1.452916	2.295500	0.000000	0.164659	0.000000	0.000019	0.000000	0.000000	0.000000
40.081524	13.800257	20.473535	-1.317333	1.922400	2.382706	0.000000	0.231249	0.000000	0.000019	0.000001	0.000000	0.000000
40.527484	15.184758	18.579978	-1.798133	2.305704	2.501301	0.000000	0.300879	0.000000	0.000019	0.000001	0.000000	0.000000
41.076544	16.951409	16.452015	-1.400411	1.592820	2.645977	0.000000	0.225341	0.000000	0.000019	0.000000	0.000000	0.000000
41.625604	18.224077	15.040363	-0.903771	0.993389	2.748017	0.000000	0.145805	0.000000	0.000019	-0.000000	0.000000	0.000000
42.174664	18.912868	14.244475	-0.343294	0.464715	2.805613	0.000000	0.063683	0.000000	0.000019	-0.000001	0.000000	0.000000
42.723724	18.969129	14.007660	0.241433	-0.030859	2.817743	0.000000	-0.019568	0.000000	0.000018	-0.000001	0.000000	0.000000
43.022297	18.859422	14.010599	0.175558	-0.015581	2.814099	0.000000	-0.012207	0.000000	0.000018	-0.000001	0.000000	0.000000
43.502297	18.703480	14.042005	0.149322	-0.049849	2.808240	0.000000	-0.012207	0.000000	0.000017	-0.000001	0.000000	0.000000
43.982297	18.572724	14.106309	0.123086	-0.084117	2.802381	0.000000	-0.012207	0.000000	0.000017	-0.000001	0.000000	0.000000
44.462297	18.467154	14.203509	0.096850	-0.118385	2.796523	0.000000	-0.012207	0.000000	0.000016	-0.000001	0.000000	0.000000
44.942297	18.386771	14.333608	0.070614	-0.152653	2.790664	0.000000	-0.012207	0.000000	0.000015	-0.000001	0.000000	0.000000
45.423547	18.331691	14.496891	-0.046515	-0.115184	2.784808	0.000000	0.001591	0.000000	0.000015	-0.000001	0.000000	0.000000
45.720870	18.364183	14.571563	-0.110746	-0.097897	2.785281	0.000000	0.008867	0.000000	0.000014	-0.000001	0.000000	0.000000
46.269930	18.176589	14.960824	0.450387	-0.615245	2.767583	0.000000	-0.073242	0.000000	0.000013	-0.000002	0.000000	0.000000
46.818990	17.386706	15.938781	0.979706	-1.176416	2.705093	0.000000	-0.154052	0.000000	0.000012	-0.000002	0.000000	0.000000
47.368050	16.050328	17.575093	1.439823	-1.821380	2.598919	0.000000	-0.232130	0.000000	0.000011	-0.000003	0.000000	0.000000
47.917110	14.261849	19.986310	1.798239	-2.596078	2.450945	0.000000	-0.306091	0.000000	0.000009	-0.000003	0.000000	0.000000
48.363070	12.870163	22.129998	1.333470	-2.190622	2.329732	0.000000	-0.237801	0.000000	0.000008	-0.000003	0.000000	0.000000
48.804030	11.874344	23.846305	0.933394	-1.686772	2.239330	0.000000	-0.172617	0.000000	0.000007	-0.000002	0.000000	0.000000
49.244990	11.211294	25.082588	0.575962	-1.106175	2.177211	0.000000	-0.109399	0.000000	0.000006	-0.000002	0.000000	0.000000
49.685950	10.850719	25.782596	0.244843	-0.475248	2.142668	0.000000	-0.047427	0.000000	0.000005	-0.000002	0.000000	0.000000
50.128160	10.776268	25.914196	-0.048779	0.113707	2.135318	0.000000	0.008769	0.000000	0.000004	-0.000002	0.000000	0.000000
50.425482	10.813498	25.850036	-0.076436	0.102085	2.137926	0.000000	0.008769	0.000000	0.000004	-0.000002	0.000000	0.000000
50.758816	10.874790	25.786322	-0.107441	0.089056	2.140850	0.000000	0.008769	0.000000	0.000003	-0.000002	0.000000	0.000000
51.092149	10.956753	25.731295	-0.138447	0.076027	2.143773	0.000000	0.008769	0.000000	0.000002	-0.000002	0.000000	0.000000
51.426732	11.059586	25.685317	-0.079847	-0.145423	2.146686	0.000000	-0.008646	0.000000	0.000001	-0.000002	0.000000	0.000000
51.724055	11.115110	25.775306	-0.079644	-0.220453	2.144116	0.000000	-0.013904	0.000000	0.000001	-0.000002	0.000000	0.000000
52.165015	11.330510	25.682942	-0.410688	0.429118	2.151573	0.000000	0.047756	0.000000	-0.000000	-0.000002	0.000000	0.000000
52.605975	11.845002	25.024163	-0.760494	1.059163	2.186314	0.000000	0.109960	0.000000	-0.000001	-0.000002	0.000000	0.000000
53.046935	12.682093	23.828943	-1.145046	1.641018	2.248735	0.000000	0.173417	0.000000	-0.000002	-0.000002	0.000000	0.000000
53.487895	13.880026	22.151663	-1.581911	2.148207	2.339546	0.000000	0.238849	0.000000	-0.000003	-0.000002	0.000000	0.000000
53.933855	15.514072	20.043564	-2.095273	2.558994	2.461286	0.000000	0.307399	0.000000	-0.000004	-0.000002	0.000000	0.000000
54.482915	17.617922	17.671344	-1.713777	1.787022	2.609887	0.000000	0.233094	0.000000	-0.000005	-0.000002	0.000000	0.000000
55.031975	19.233490	16.072389	-1.211230	1.142335	2.716494	0.000000	0.154654	0.000000	-0.000006	-0.000002	0.000000	0.000000
55.581035	20.246658	15.132811	-0.623127	0.579014	2.779214	0.000000	0.073470	0.000000	-0.000007	-0.000002	0.000000	0.000000
56.130095	20.585864	14.785685	0.008990	0.056936	2.796935	0.000000	-0.009016	0.000000	-0.000008	-0.000001	0.000000	0.000000
56.428668	20.616955	14.734700	-0.059333	0.075193	2.796426	0.000000	-0.001708	0.000000	-0.000008	-0.000001	0.000000	0.000000
56.762001	20.661919	14.692155	-0.075558	0.052443	2.795857	0.000000	-0.001708	0.000000	-0.000009	-0.000001	0.000000	0.000000
57.095334	20.717699	14.664776	-0.091783	0.029693	2.795288	0.000000	-0.001708	0.000000	-0.000009	-0.000001	0.000000	0.000000
57.429918	20.784566	14.652547	-0.108069	0.006857	2.794718	0.000000	-0.001708	0.000000	-0.000010	-0.000001	0.000000	0.000000
57.727240	20.853131	14.654503	-0.177031	0.024857	2.794210	0.000000	0.005594	0.000000	-0.000010	-0.000002	0.000000	0.000000
58.276300	20.691817	14.908542	0.469091	-0.490267	2.774641	0.000000	-0.076775	0.000000	-0.000011	-0.000001	0.000000	0.000000
58.825360	19.835061	15.743990	1.082078	-1.040312	2.710154	0.000000	-0.157781	0.000000	-0.000012	-0.000001	0.000000	0.000000
59.374420	18.343378	17.220355	1.618633	-1.664456	2.601893	0.000000	-0.235989	0.000000	-0.000012	-0.000000	0.000000	0.000000
59.923480	16.322135	19.442795	2.040855	-2.407155	2.451779	0.000000	-0.310011	0.000000	-0.000012	-0.000000	0.000000	0.000000
60.369440	14.740179	21.418066	1.519013	-2.003403	2.328818	0.000000	-0.241723	0.000000	-0.000012	-0.000000	0.000000	0.000000
60.810400	13.602505	22.973199	1.070768	-1.509876	2.236677	0.000000	-0.176585	0.000000	-0.000012	-0.000001	0.000000	0.000000
61.251360	12.837162	24.061009	0.671444	-0.947650	2.172790	0.000000	-0.113458	0.000000	-0.000013	-0.000001	0.000000	0.000000
61.692320	12.409184	24.632001	0.302796	-0.342307	2.136428	0.000000	-0.051623	0.000000	-0.000013	-0.000001	0.000000	0.000000
62.134530	12.299073	24.659651	-0.021955	0.218076	2.127182	0.000000	0.004406	0.000000	-0.000014	-0.000002	0.000000	0.000000
62.431853	12.319320	24.533728	-0.046141	0.205445	2.128493	0.000000	0.004406	0.000000	-0.000014	-0.000002	0.000000	0.000000
62.765186	12.359118	24.401485	-0.073256	0.191285	2.129962	0.000000	0.004406	0.000000	-0.000015	-0.000002	0.000000	0.000000
63.098520	12.416994	24.278681	-0.100371	0.177125	2.131432	0.000000	0.004406	0.000000	-0.000015	-0.000002	0.000000	0.000000
63.433103	12.493266	24.164911	-0.127588	0.162912	2.132906	0.000000	0.004406	0.000000	-0.000016	-0.000002	0.000000	0.000000
63.730426	12.576327	24.071791	-0.120929	0.091240	2.134217	0.000000	-0.000828	0.000000	-0.000017	-0.000002	0.000000	0.000000
64.171386	12.843177	23.726238	-0.486526	0.689416	2.147395	0.000000	0.060650	0.000000	-0.000017	-0.000002	0.000000	0.000000
64.612346	13.441001	22.865012	-0.874351	1.256224	2.187809	0.000000	0.122820	0.000000	-0.000018	-0.000002	0.000000	0.000000
65.053306	14.397110	21.527298	-1.302122	1.765874	2.255920	0.000000	0.186389	0.000000	-0.000019	-0.000003	0.000000	0.000000
65.494266	15.755188	19.773960	-1.789384	2.195179	2.352502	0.000000	0.252080	0.000000	-0.000021	-0.000003	0.000000	0.000000
65.940226	17.600442	17.659973	-2.363089	2.525355	2.480231	0.000000	0.321044	0.000000	-0.000023	-0.000004	0.000000	0.000000
66.489286	19.966058	15.295163	-1.919893	1.807086	2.636134	0.000000	0.246007	0.000000	-0.000025	-0.000003	0.000000	0.000000
67.038346	21.767192	13.644212	-1.341087	1.217532	2.749577	0.000000	0.166605	0.000000	-0.000026	-0.000002	0.000000	0.000000
67.587406	22.876621	12.589526	-0.667553	0.714700	2.818547	0.000000	0.084249	0.000000	-0.000027	-0.000002	0.000000	0.000000
68.136466	23.215982	12.055984	0.053134	0.262774	2.841820	0.000000	0.000398	0.000000	-0.000028	-0.000001	0.000000	0.000000
68.435038	23.224325	11.888290	-0.020401	0.267372	2.844156	0.000000	0.007825	0.000000	-0.000028	-0.000001	0.000000	0.000000
68.768372	23.242711	11.720056	-0.034759	0.237328	2.846765	0.000000	0.007825	0.000000	-0.000028	-0.000001	0.000000	0.000000
69.101705	23.270670	11.571852	-0.049118	0.207285	2.849373	0.000000	0.007825	0.000000	-0.000029	-0.000001	0.000000	0.000000
69.436288	23.308361	11.443233	-0.063531	0.177129	2.851992	0.000000	0.007825	0.000000	-0.000029	-0.000001	0.000000	0.000000
69.733611	23.349947	11.345871	-0.137362	0.179983	2.854318	0.000000	0.015284	0.000000	-0.000029	-0.000001	0.000000	0.000000
70.282671	23.099752	11.375517	0.590344	-0.234296	2.839520	0.000000	-0.069109	0.000000	-0.000029	0.000000	0.000000	0.000000
