#ParticleID	Turn	x[m]	xp	y[m]	yp	z[m]	dE[GeV]# s	beta_x	beta_y	alpha_x	alpha_y	D_x	D_y	D_px	D_py	orbit_x	orbit_px	orbit_y	orbit_py
0.300000	11.809094	25.038060	-0.010517	-0.027072	2.618110	0.000000	0.000014	0.000000	-0.000001	0.000001	0.000000	0.000000
0.601250	11.823116	25.057998	-0.036029	-0.039112	2.618114	0.000000	0.000014	0.000000	-0.000000	0.000001	0.000000	0.000000
0.898573	11.852027	25.084789	-0.032145	-0.112510	2.618117	0.000000	-0.006407	0.000000	0.000000	0.000001	0.000000	0.000000
1.339533	12.032449	24.905745	-0.378563	0.516997	2.631585	0.000000	0.067551	0.000000	0.000001	0.000001	0.000000	0.000000
1.780493	12.524826	24.179818	-0.742277	1.122981	2.677803	0.000000	0.142277	0.000000	0.000002	0.000001	0.000000	0.000000
2.221453	13.351656	22.940037	-1.139903	1.677870	2.757298	0.000000	0.218624	0.000000	0.000002	0.000002	0.000000	0.000000
2.662413	14.550713	21.242811	-1.589608	2.156418	2.870976	0.000000	0.297462	0.000000	0.000003	0.000002	0.000000	0.000000
3.108373	16.197509	19.140473	-2.116225	2.537983	3.021993	0.000000	0.380176	0.000000	0.000004	0.000002	0.000000	0.000000
3.657433	18.309268	16.779208	-1.707142	1.787961	3.205460	0.000000	0.287138	0.000000	0.000005	0.000002	0.000000	0.000000
4.206493	19.902527	15.167211	-1.177474	1.165291	3.336368	0.000000	0.189007	0.000000	0.000005	0.000001	0.000000	0.000000
4.755553	20.864746	14.189662	-0.564635	0.625622	3.412395	0.000000	0.087524	0.000000	0.000006	0.000001	0.000000	0.000000
5.304613	21.127958	13.776933	0.088087	0.130515	3.432193	0.000000	-0.015512	0.000000	0.000007	0.000001	0.000000	0.000000
5.603185	21.112544	13.684152	0.018739	0.144237	3.430238	0.000000	-0.006545	0.000000	0.000007	0.000001	0.000000	0.000000
5.936519	21.105316	13.596283	0.002945	0.119371	3.428056	0.000000	-0.006545	0.000000	0.000007	0.000001	0.000000	0.000000
6.269852	21.108617	13.524991	-0.012849	0.094505	3.425874	0.000000	-0.006545	0.000000	0.000008	0.000001	0.000000	0.000000
6.604435	21.122519	13.470102	-0.028702	0.069546	3.423684	0.000000	-0.006545	0.000000	0.000008	0.000001	0.000000	0.000000
6.901758	21.143775	13.435341	-0.098030	0.082468	3.421738	0.000000	0.002395	0.000000	0.000008	0.000001	0.000000	0.000000
7.450818	20.891090	13.605676	0.555520	-0.394529	3.394850	0.000000	-0.100188	0.000000	0.000009	0.000001	0.000000	0.000000
7.999878	19.938128	14.312076	1.169831	-0.899628	3.312045	0.000000	-0.200993	0.000000	0.000009	0.000000	0.000000	0.000000
8.548938	18.352200	15.604858	1.701512	-1.468806	3.174790	0.000000	-0.298233	0.000000	0.000009	0.000000	0.000000	0.000000
9.097998	16.245329	17.576103	2.113006	-2.142603	2.985520	0.000000	-0.390184	0.000000	0.000009	-0.000000	0.000000	0.000000
9.543958	14.601615	19.332563	1.585886	-1.779355	2.829821	0.000000	-0.308476	0.000000	0.000009	0.000000	0.000000	0.000000
9.984918	13.406124	20.711727	1.135508	-1.336382	2.711042	0.000000	-0.230766	0.000000	0.000009	0.000000	0.000000	0.000000
10.425878	12.583541	21.671817	0.737007	-0.832605	2.625918	0.000000	-0.155683	0.000000	0.000010	0.000001	0.000000	0.000000
10.866838	12.096283	22.169151	0.372178	-0.290945	2.573481	0.000000	-0.082374	0.000000	0.000010	0.000001	0.000000	0.000000
11.309048	11.921955	22.180575	0.053482	0.209504	2.553112	0.000000	-0.016264	0.000000	0.000010	0.000001	0.000000	0.000000
11.606371	11.897589	22.060155	0.028471	0.195511	2.548276	0.000000	-0.016264	0.000000	0.000011	0.000001	0.000000	0.000000
12.086371	11.889637	21.883308	-0.011906	0.172921	2.540469	0.000000	-0.016264	0.000000	0.000011	0.000001	0.000000	0.000000
12.566371	11.920447	21.728148	-0.052283	0.150330	2.532662	0.000000	-0.016264	0.000000	0.000012	0.000001	0.000000	0.000000
13.046371	11.990019	21.594674	-0.092660	0.127740	2.524854	0.000000	-0.016264	0.000000	0.000012	0.000001	0.000000	0.000000
13.526371	12.098354	21.482888	-0.133037	0.105149	2.517047	0.000000	-0.016264	0.000000	0.000013	0.000001	0.000000	0.000000
14.007621	12.245883	21.392581	-0.173519	0.082500	2.509219	0.000000	-0.016264	0.000000	0.000013	0.000001	0.000000	0.000000
14.304943	12.356502	21.347683	-0.168231	0.016163	2.504383	0.000000	-0.022405	0.000000	0.000014	0.000001	0.000000	0.000000
14.745903	12.663372	21.099787	-0.530323	0.543871	2.510136	0.000000	0.048521	0.000000	0.000014	0.000001	0.000000	0.000000
15.186863	13.299016	20.395671	-0.916644	1.046833	2.547255	0.000000	0.120000	0.000000	0.000015	0.000002	0.000000	0.000000
15.627823	14.292474	19.267371	-1.344844	1.502164	2.616165	0.000000	0.192845	0.000000	0.000016	0.000002	0.000000	0.000000
16.068783	15.689133	17.766225	-1.834486	1.889149	2.717649	0.000000	0.267887	0.000000	0.000017	0.000003	0.000000	0.000000
16.514743	17.576463	15.939032	-2.412698	2.190922	2.854560	0.000000	0.346442	0.000000	0.000018	0.000003	0.000000	0.000000
17.063803	20.000532	13.898839	-1.976108	1.546803	3.021044	0.000000	0.259104	0.000000	0.000020	0.000002	0.000000	0.000000
17.612863	21.865221	12.501677	-1.399934	1.012860	3.138240	0.000000	0.167170	0.000000	0.000021	0.000002	0.000000	0.000000
18.161923	23.038818	11.648030	-0.724877	0.551060	3.204070	0.000000	0.072271	0.000000	0.000022	0.000001	0.000000	0.000000
18.710983	23.438426	11.277094	0.001383	0.128511	3.217366	0.000000	-0.023909	0.000000	0.000022	0.000000	0.000000	0.000000
19.009556	23.477980	11.190865	-0.072630	0.130834	3.212736	0.000000	-0.015505	0.000000	0.000022	0.000000	0.000000	0.000000
19.342889	23.531157	11.113742	-0.086903	0.100538	3.207568	0.000000	-0.015505	0.000000	0.000023	0.000000	0.000000	0.000000
19.676223	23.593850	11.056815	-0.101176	0.070242	3.202400	0.000000	-0.015505	0.000000	0.000023	0.000000	0.000000	0.000000
20.010806	23.666640	11.019850	-0.232759	0.094431	3.197232	0.000000	0.000336	0.000000	0.000023	0.000001	0.000000	0.000000
20.308129	23.808987	10.971790	-0.308199	0.095872	3.197332	0.000000	0.008689	0.000000	0.000023	0.000001	0.000000	0.000000
20.857189	23.736776	11.088533	0.438939	-0.309749	3.175880	0.000000	-0.086711	0.000000	0.000023	-0.000000	0.000000	0.000000
21.406249	22.856355	11.660124	1.155073	-0.737432	3.102395	0.000000	-0.180572	0.000000	0.000023	-0.000001	0.000000	0.000000
21.955309	21.229914	12.727277	1.789619	-1.217641	2.978180	0.000000	-0.271231	0.000000	0.000022	-0.000002	0.000000	0.000000
22.504369	18.972336	14.366004	2.297754	-1.784579	2.805436	0.000000	-0.357079	0.000000	0.000021	-0.000002	0.000000	0.000000
22.950329	17.193100	15.837339	1.706004	-1.500755	2.663489	0.000000	-0.279863	0.000000	0.000020	-0.000002	0.000000	0.000000
23.391289	15.917876	17.010460	1.196893	-1.149500	2.556405	0.000000	-0.206290	0.000000	0.000020	-0.000001	0.000000	0.000000
23.832249	15.065929	17.849467	0.742464	-0.745943	2.481214	0.000000	-0.135066	0.000000	0.000019	-0.000001	0.000000	0.000000
24.273209	14.598335	18.316187	0.321957	-0.308447	2.437062	0.000000	-0.065381	0.000000	0.000019	-0.000000	0.000000	0.000000
24.715418	14.493854	18.389140	-0.048391	0.097926	2.423442	0.000000	-0.002382	0.000000	0.000019	0.000000	0.000000	0.000000
25.012741	14.528743	18.335762	-0.068953	0.081603	2.422733	0.000000	-0.002382	0.000000	0.000019	0.000000	0.000000	0.000000
25.346075	14.582396	18.287460	-0.092005	0.063302	2.421939	0.000000	-0.002382	0.000000	0.000019	0.000000	0.000000	0.000000
25.679408	14.651417	18.251358	-0.115057	0.045002	2.421145	0.000000	-0.002382	0.000000	0.000019	0.000000	0.000000	0.000000
26.013991	14.735852	18.227760	-0.018649	-0.121240	2.420324	0.000000	-0.022017	0.000000	0.000019	0.000000	0.000000	0.000000
26.311314	14.752943	18.304776	-0.002661	-0.182671	2.413777	0.000000	-0.027936	0.000000	0.000019	-0.000000	0.000000	0.000000
26.752274	14.937043	18.267375	-0.416421	0.267165	2.416571	0.000000	0.040616	0.000000	0.000019	0.000000	0.000000	0.000000
27.193234	15.493024	17.837121	-0.849206	0.704845	2.449665	0.000000	0.109631	0.000000	0.000020	0.000001	0.000000	0.000000
27.634194	16.446289	17.033588	-1.320788	1.110455	2.513439	0.000000	0.179894	0.000000	0.000020	0.000002	0.000000	0.000000
28.075154	17.840389	15.893337	-1.852714	1.465541	2.608617	0.000000	0.252206	0.000000	0.000021	0.000002	0.000000	0.000000
28.521114	19.763233	14.451071	-2.474256	1.754857	2.737887	0.000000	0.327834	0.000000	0.000022	0.000003	0.000000	0.000000
29.070174	22.207179	12.844157	-1.950537	1.189082	2.895220	0.000000	0.244425	0.000000	0.000023	0.000002	0.000000	0.000000
29.619234	23.996495	11.808656	-1.289042	0.708002	3.005497	0.000000	0.156680	0.000000	0.000024	0.000001	0.000000	0.000000
30.168294	25.004794	11.270812	-0.536495	0.277352	3.066762	0.000000	0.066156	0.000000	0.000024	0.000000	0.000000	0.000000
30.717354	25.160853	11.192316	0.253947	-0.133543	3.077929	0.000000	-0.025541	0.000000	0.000024	-0.000000	0.000000	0.000000
31.015927	25.052128	11.262654	0.175933	-0.131273	3.072704	0.000000	-0.017501	0.000000	0.000024	-0.000000	0.000000	0.000000
31.349260	24.939412	11.360204	0.162215	-0.161379	3.066870	0.000000	-0.017501	0.000000	0.000024	-0.000000	0.000000	0.000000
31.682593	24.835841	11.477826	0.148498	-0.191485	3.061037	0.000000	-0.017501	0.000000	0.000024	-0.000000	0.000000	0.000000
32.017177	24.741078	11.616072	0.134729	-0.221705	3.055182	0.000000	-0.017501	0.000000	0.000024	-0.000000	0.000000	0.000000
32.314499	24.664600	11.755892	0.058062	-0.217849	3.049978	0.000000	-0.009533	0.000000	0.000024	-0.000000	0.000000	0.000000
32.863559	24.178238	12.234303	0.822501	-0.658622	3.019859	0.000000	-0.100018	0.000000	0.000023	-0.000001	0.000000	0.000000
33.412619	22.879520	13.219503	1.528843	-1.146307	2.940474	0.000000	-0.188728	0.000000	0.000023	-0.000002	0.000000	0.000000
33.961679	20.860180	14.781664	2.127195	-1.715642	2.813230	0.000000	-0.274092	0.000000	0.000021	-0.000003	0.000000	0.000000
34.510739	18.262856	17.032056	2.575292	-2.407177	2.640384	0.000000	-0.354593	0.000000	0.000020	-0.000003	0.000000	0.000000
34.956699	16.243297	19.044970	1.969498	-2.087640	2.498594	0.000000	-0.281657	0.000000	0.000018	-0.000003	0.000000	0.000000
35.397659	14.737311	20.709978	1.458701	-1.673861	2.389778	0.000000	-0.212357	0.000000	0.000017	-0.000002	0.000000	0.000000
35.838619	13.650828	21.974960	1.014548	-1.183923	2.310959	0.000000	-0.145476	0.000000	0.000016	-0.000002	0.000000	0.000000
36.279579	12.934211	22.782362	0.616747	-0.640117	2.261239	0.000000	-0.080251	0.000000	0.000016	-0.000001	0.000000	0.000000
36.721789	12.554024	23.095755	0.277799	-0.123870	2.240025	0.000000	-0.021433	0.000000	0.000015	-0.000001	0.000000	0.000000
37.019112	12.396417	23.173300	0.252288	-0.136941	2.233652	0.000000	-0.021433	0.000000	0.000015	-0.000001	0.000000	0.000000
37.352445	12.237759	23.269478	0.223687	-0.151595	2.226508	0.000000	-0.021433	0.000000	0.000014	-0.000001	0.000000	0.000000
37.685779	12.098168	23.375426	0.195086	-0.166249	2.219364	0.000000	-0.021433	0.000000	0.000014	-0.000001	0.000000	0.000000
38.020362	11.977228	23.491595	0.166378	-0.180958	2.212193	0.000000	-0.021433	0.000000	0.000014	-0.000001	0.000000	0.000000
38.317684	11.885877	23.603087	0.170011	-0.251904	2.205821	0.000000	-0.026842	0.000000	0.000013	-0.000001	0.000000	0.000000
38.758644	11.887456	23.563805	-0.173605	0.340648	2.207914	0.000000	0.036340	0.000000	0.000013	-0.000001	0.000000	0.000000
39.199604	12.194415	23.006804	-0.525152	0.917700	2.237931	0.000000	0.099936	0.000000	0.000013	-0.000000	0.000000	0.000000
39.640564	12.820779	21.957428	-0.900691	1.452998	2.296216	0.000000	0.164670	0.000000	0.000013	-0.000000	0.000000	0.000000
40.081524	13.795164	20.463421	-1.317381	1.922185	2.383432	0.000000	0.231279	0.000000	0.000013	0.000000	0.000000	0.000000
40.527484	15.179665	18.570186	-1.798086	2.305200	2.502044	0.000000	0.300928	0.000000	0.000013	0.000001	0.000000	0.000000
41.076544	16.946380	16.442625	-1.400574	1.592588	2.646740	0.000000	0.225365	0.000000	0.000013	0.000000	0.000000	0.000000
41.625604	18.219337	15.031088	-0.904132	0.993411	2.748788	0.000000	0.145805	0.000000	0.000013	-0.000000	0.000000	0.000000
42.174664	18.908621	14.235035	-0.343827	0.464994	2.806377	0.000000	0.063658	0.000000	0.000013	-0.000001	0.000000	0.000000
42.723724	18.965545	13.997764	0.240765	-0.030303	2.818485	0.000000	-0.019618	0.000000	0.000012	-0.000001	0.000000	0.000000
43.022297	18.856233	14.000391	0.174898	-0.015064	2.814827	0.000000	-0.012254	0.000000	0.000012	-0.000001	0.000000	0.000000
43.502297	18.700924	14.031313	0.148664	-0.049357	2.808946	0.000000	-0.012254	0.000000	0.000011	-0.000001	0.000000	0.000000
43.982297	18.570799	14.095156	0.122429	-0.083649	2.803064	0.000000	-0.012254	0.000000	0.000011	-0.000001	0.000000	0.000000
44.462297	18.465860	14.191920	0.096195	-0.117942	2.797183	0.000000	-0.012254	0.000000	0.000010	-0.000001	0.000000	0.000000
44.942297	18.386105	14.321604	0.069960	-0.152234	2.791301	0.000000	-0.012254	0.000000	0.000010	-0.000001	0.000000	0.000000
45.423547	18.331654	14.484497	-0.047168	-0.114851	2.785422	0.000000	0.001546	0.000000	0.000009	-0.000001	0.000000	0.000000
45.720870	18.364535	14.558976	-0.111402	-0.097612	2.785882	0.000000	0.008825	0.000000	0.000009	-0.000001	0.000000	0.000000
46.269930	18.177650	14.947712	0.449760	-0.614570	2.768155	0.000000	-0.073303	0.000000	0.000008	-0.000001	0.000000	0.000000
46.818990	17.388417	15.924694	0.979155	-1.175303	2.705626	0.000000	-0.154132	0.000000	0.000007	-0.000002	0.000000	0.000000
47.368050	16.052585	17.559508	1.439386	-1.819751	2.599404	0.000000	-0.232226	0.000000	0.000007	-0.000002	0.000000	0.000000
47.917110	14.264510	19.968601	1.797946	-2.593815	2.451372	0.000000	-0.306201	0.000000	0.000006	-0.000002	0.000000	0.000000
48.363070	12.873092	22.110442	1.333159	-2.188761	2.330112	0.000000	-0.237901	0.000000	0.000005	-0.000002	0.000000	0.000000
48.804030	11.877561	23.825317	0.933050	-1.685396	2.239668	0.000000	-0.172708	0.000000	0.000004	-0.000002	0.000000	0.000000
49.244990	11.214834	25.060624	0.575569	-1.105347	2.177511	0.000000	-0.109481	0.000000	0.000003	-0.000002	0.000000	0.000000
49.685950	10.854633	25.760158	0.244385	-0.475005	2.142932	0.000000	-0.047502	0.000000	0.000002	-0.000002	0.000000	0.000000
50.128160	10.780625	25.891807	-0.049314	0.113407	2.135550	0.000000	0.008699	0.000000	0.000002	-0.000002	0.000000	0.000000
50.425482	10.818170	25.827828	-0.076961	0.101776	2.138137	0.000000	0.008699	0.000000	0.000001	-0.000002	0.000000	0.000000
50.758816	10.879808	25.764324	-0.107955	0.088736	2.141038	0.000000	0.008699	0.000000	0.000001	-0.000002	0.000000	0.000000
51.092149	10.962110	25.709514	-0.138950	0.075696	2.143938	0.000000	0.008699	0.000000	0.000000	-0.000002	0.000000	0.000000
51.426732	11.065276	25.663760	-0.080293	-0.145589	2.146827	0.000000	-0.008717	0.000000	-0.000000	-0.000002	0.000000	0.000000
51.724055	11.121062	25.753851	-0.080064	-0.220577	2.144236	0.000000	-0.013975	0.000000	-0.000001	-0.000002	0.000000	0.000000
52.165015	11.336894	25.661847	-0.411252	0.428429	2.151662	0.000000	0.047688	0.000000	-0.000001	-0.000002	0.000000	0.000000
52.605975	11.851957	25.003913	-0.761230	1.057942	2.186374	0.000000	0.109894	0.000000	-0.000002	-0.000002	0.000000	0.000000
53.046935	12.689785	23.809986	-1.145986	1.639319	2.248765	0.000000	0.173352	0.000000	-0.000003	-0.000002	0.000000	0.000000
53.487895	13.888654	22.134388	-1.583099	2.146108	2.339547	0.000000	0.238784	0.000000	-0.000003	-0.000002	0.000000	0.000000
53.933855	15.523891	20.028306	-2.096766	2.556590	2.461258	0.000000	0.307334	0.000000	-0.000004	-0.000002	0.000000	0.000000
54.482915	17.629244	17.658385	-1.715004	1.785211	2.609824	0.000000	0.233030	0.000000	-0.000005	-0.000002	0.000000	0.000000
55.031975	19.245970	16.061154	-1.212102	1.140990	2.716395	0.000000	0.154593	0.000000	-0.000006	-0.000001	0.000000	0.000000
55.581035	20.259873	15.122843	-0.623584	0.578038	2.779083	0.000000	0.073413	0.000000	-0.000007	-0.000001	0.000000	0.000000
56.130095	20.599336	14.776619	0.008981	0.056259	2.796774	0.000000	-0.009069	0.000000	-0.000007	-0.000001	0.000000	0.000000
56.428668	20.630451	14.726055	-0.059368	0.074483	2.796248	0.000000	-0.001761	0.000000	-0.000008	-0.000001	0.000000	0.000000
56.762001	20.675435	14.683987	-0.075582	0.051721	2.795662	0.000000	-0.001761	0.000000	-0.000008	-0.000001	0.000000	0.000000
57.095334	20.731228	14.657093	-0.091797	0.028960	2.795075	0.000000	-0.001761	0.000000	-0.000008	-0.000001	0.000000	0.000000
57.429918	20.798100	14.645358	-0.108072	0.006114	2.794486	0.000000	-0.001761	0.000000	-0.000009	-0.000001	0.000000	0.000000
57.727240	20.866664	14.647759	-0.177059	0.024086	2.793963	0.000000	0.005540	0.000000	-0.000009	-0.000001	0.000000	0.000000
58.276300	20.705133	14.902543	0.469513	-0.490862	2.774366	0.000000	-0.076820	0.000000	-0.000010	-0.000001	0.000000	0.000000
58.825360	19.847678	15.738567	1.082921	-1.040772	2.709856	0.000000	-0.157817	0.000000	-0.000010	-0.000000	0.000000	0.000000
59.374420	18.354864	17.215380	1.619837	-1.664815	2.601578	0.000000	-0.236015	0.000000	-0.000010	-0.000000	0.000000	0.000000
59.923480	16.332137	19.438170	2.042336	-2.407439	2.451452	0.000000	-0.310027	0.000000	-0.000010	0.000000	0.000000	0.000000
60.369440	14.749001	21.413776	1.520188	-2.003867	2.328482	0.000000	-0.241747	0.000000	-0.000010	-0.000000	0.000000	0.000000
60.810400	13.610405	22.969390	1.071693	-1.510498	2.236329	0.000000	-0.176618	0.000000	-0.000010	-0.000000	0.000000	0.000000
61.251360	12.844342	24.057808	0.672160	-0.948402	2.172424	0.000000	-0.113500	0.000000	-0.000010	-0.000001	0.000000	0.000000
61.692320	12.415812	24.629509	0.303337	-0.343155	2.136041	0.000000	-0.051675	0.000000	-0.000011	-0.000001	0.000000	0.000000
62.134530	12.305292	24.657937	-0.021551	0.217177	2.126771	0.000000	0.004345	0.000000	-0.000011	-0.000001	0.000000	0.000000
62.431853	12.325294	24.532548	-0.045724	0.204550	2.128063	0.000000	0.004345	0.000000	-0.000011	-0.000001	0.000000	0.000000
62.765186	12.364811	24.400900	-0.072825	0.190394	2.129512	0.000000	0.004345	0.000000	-0.000012	-0.000001	0.000000	0.000000
63.098520	12.422395	24.278689	-0.099926	0.176238	2.130960	0.000000	0.004345	0.000000	-0.000012	-0.000001	0.000000	0.000000
63.433103	12.498364	24.165510	-0.127129	0.162029	2.132414	0.000000	0.004345	0.000000	-0.000013	-0.000001	0.000000	0.000000
63.730426	12.581148	24.072914	-0.120446	0.090361	2.133707	0.000000	-0.000888	0.000000	-0.000013	-0.000001	0.000000	0.000000
64.171386	12.847617	23.728116	-0.486140	0.688589	2.146855	0.000000	0.060577	0.000000	-0.000013	-0.000001	0.000000	0.000000
64.612346	13.445136	22.867582	-0.874044	1.255487	2.187233	0.000000	0.122732	0.000000	-0.000014	-0.000002	0.000000	0.000000
65.053306	14.401005	21.530464	-1.301880	1.765262	2.255302	0.000000	0.186285	0.000000	-0.000015	-0.000002	0.000000	0.000000
65.494266	15.758893	19.777602	-1.789196	2.194718	2.351835	0.000000	0.251960	0.000000	-0.000016	-0.000003	0.000000	0.000000
65.940226	17.604000	17.663949	-2.362945	2.525068	2.479505	0.000000	0.320907	0.000000	-0.000017	-0.000003	0.000000	0.000000
66.489286	19.969364	15.299475	-1.919580	1.806757	2.635340	0.000000	0.245893	0.000000	-0.000019	-0.000002	0.000000	0.000000
67.038346	21.770070	13.648918	-1.340624	1.217137	2.748727	0.000000	0.166519	0.000000	-0.000020	-0.000002	0.000000	0.000000
67.587406	22.878925	12.594715	-0.666974	0.714212	2.817657	0.000000	0.084190	0.000000	-0.000021	-0.000001	0.000000	0.000000
68.136466	23.217606	12.061776	0.053787	0.262158	2.840905	0.000000	0.000369	0.000000	-0.000021	-0.000000	0.000000	0.000000
68.435038	23.225558	11.894435	-0.019747	0.266790	2.843232	0.000000	0.007793	0.000000	-0.000021	-0.000001	0.000000	0.000000
68.768372	23.243509	11.726581	-0.034105	0.236771	2.845830	0.000000	0.007793	0.000000	-0.000022	-0.000001	0.000000	0.000000
69.101705	23.271031	11.578740	-0.048462	0.206752	2.848428	0.000000	0.007793	0.000000	-0.000022	-0.000001	0.000000	0.000000
69.436288	23.308282	11.450470	-0.062874	0.176620	2.851036	0.000000	0.007793	0.000000	-0.000022	-0.000001	0.000000	0.000000
69.733611	23.349477	11.353405	-0.136699	0.179514	2.853353	0.000000	0.015250	0.000000	-0.000022	-0.000001	0.000000	0.000000
70.282671	23.098569	11.383684	0.590972	-0.234986	2.838544	0.000000	-0.069112	0.000000	-0.000022	0.000000	0.000000	0.000000
