#ParticleID	Turn	x[m]	xp	y[m]	yp	z[m]	dE[GeV]# s	beta_x	beta_y	alpha_x	alpha_y	D_x	D_y	D_px	D_py	orbit_x	orbit_px	orbit_y	orbit_py
0.300000	11.811239	25.029499	-0.010727	-0.027173	2.618072	0.000000	0.000027	0.000000	-0.000000	0.000001	0.000000	0.000000
0.601250	11.825386	25.049499	-0.036236	-0.039217	2.618079	0.000000	0.000027	0.000000	-0.000000	0.000001	0.000000	0.000000
0.898573	11.854419	25.076354	-0.032341	-0.112599	2.618087	0.000000	-0.006393	0.000000	0.000000	0.000001	0.000000	0.000000
1.339533	12.035039	24.897487	-0.378819	0.516687	2.631560	0.000000	0.067563	0.000000	0.000001	0.000002	0.000000	0.000000
1.780493	12.527673	24.171926	-0.742604	1.122464	2.677784	0.000000	0.142289	0.000000	0.000002	0.000002	0.000000	0.000000
2.221453	13.354828	22.932683	-1.140316	1.677170	2.757285	0.000000	0.218636	0.000000	0.000002	0.000002	0.000000	0.000000
2.662413	14.554294	21.236144	-1.590126	2.155566	2.870967	0.000000	0.297473	0.000000	0.000003	0.000002	0.000000	0.000000
3.108373	16.201608	19.134620	-2.116873	2.537018	3.021989	0.000000	0.380188	0.000000	0.000004	0.000002	0.000000	0.000000
3.657433	18.314023	16.774281	-1.707681	1.787229	3.205462	0.000000	0.287150	0.000000	0.000005	0.000002	0.000000	0.000000
4.206493	19.907797	15.162984	-1.177867	1.164740	3.336376	0.000000	0.189018	0.000000	0.000006	0.000001	0.000000	0.000000
4.755553	20.870354	14.185960	-0.564854	0.625212	3.412410	0.000000	0.087534	0.000000	0.000006	0.000001	0.000000	0.000000
5.304613	21.133702	13.773618	0.088058	0.130217	3.432213	0.000000	-0.015502	0.000000	0.000007	0.000001	0.000000	0.000000
5.603185	21.118313	13.681022	0.018700	0.143927	3.430262	0.000000	-0.006535	0.000000	0.000007	0.000001	0.000000	0.000000
5.936519	21.111110	13.593360	0.002910	0.119057	3.428083	0.000000	-0.006535	0.000000	0.000008	0.000001	0.000000	0.000000
6.269852	21.114433	13.522278	-0.012880	0.094188	3.425904	0.000000	-0.006535	0.000000	0.000008	0.000001	0.000000	0.000000
6.604435	21.128355	13.467603	-0.028728	0.069225	3.423717	0.000000	-0.006535	0.000000	0.000008	0.000001	0.000000	0.000000
6.901758	21.149625	13.433034	-0.098068	0.082138	3.421774	0.000000	0.002405	0.000000	0.000009	0.000001	0.000000	0.000000
7.450818	20.896874	13.603696	0.555678	-0.394800	3.394892	0.000000	-0.100179	0.000000	0.000009	0.000001	0.000000	0.000000
7.999878	19.943636	14.310372	1.170173	-0.899860	3.312091	0.000000	-0.200986	0.000000	0.000010	0.000000	0.000000	0.000000
8.548938	18.357242	15.603394	1.702014	-1.469015	3.174840	0.000000	-0.298227	0.000000	0.000010	0.000000	0.000000	0.000000
9.097998	16.249748	17.574863	2.113632	-2.142805	2.985573	0.000000	-0.390179	0.000000	0.000010	-0.000000	0.000000	0.000000
9.543958	14.605537	19.331531	1.586380	-1.779615	2.829876	0.000000	-0.308470	0.000000	0.000010	0.000000	0.000000	0.000000
9.984918	13.409660	20.710946	1.135891	-1.336689	2.711100	0.000000	-0.230758	0.000000	0.000010	0.000000	0.000000	0.000000
10.425878	12.586780	21.671322	0.737299	-0.832945	2.625980	0.000000	-0.155675	0.000000	0.000010	0.000001	0.000000	0.000000
10.866838	12.099301	22.168964	0.372391	-0.291302	2.573546	0.000000	-0.082364	0.000000	0.000010	0.000001	0.000000	0.000000
11.309048	11.924816	22.180706	0.053633	0.209146	2.553183	0.000000	-0.016252	0.000000	0.000011	0.000001	0.000000	0.000000
11.606371	11.900358	22.060498	0.028628	0.195155	2.548350	0.000000	-0.016252	0.000000	0.000011	0.000001	0.000000	0.000000
12.086371	11.892252	21.883991	-0.011740	0.172568	2.540549	0.000000	-0.016252	0.000000	0.000012	0.000001	0.000000	0.000000
12.566371	11.922899	21.729167	-0.052108	0.149981	2.532747	0.000000	-0.016252	0.000000	0.000012	0.000001	0.000000	0.000000
13.046371	11.992299	21.596028	-0.092476	0.127394	2.524946	0.000000	-0.016252	0.000000	0.000013	0.000001	0.000000	0.000000
13.526371	12.100453	21.484571	-0.132844	0.104807	2.517144	0.000000	-0.016252	0.000000	0.000013	0.000001	0.000000	0.000000
14.007621	12.247793	21.394593	-0.173317	0.082161	2.509322	0.000000	-0.016252	0.000000	0.000014	0.000001	0.000000	0.000000
14.304943	12.358289	21.349896	-0.168020	0.015821	2.504490	0.000000	-0.022393	0.000000	0.000014	0.000001	0.000000	0.000000
14.745903	12.664989	21.102273	-0.530146	0.543596	2.510248	0.000000	0.048536	0.000000	0.000015	0.000001	0.000000	0.000000
15.186863	13.300488	20.398365	-0.916492	1.046637	2.547374	0.000000	0.120017	0.000000	0.000015	0.000002	0.000000	0.000000
15.627823	14.293820	19.270200	-1.344711	1.502057	2.616292	0.000000	0.192866	0.000000	0.000016	0.000002	0.000000	0.000000
16.068783	15.690368	17.769107	-1.834365	1.889135	2.717787	0.000000	0.267911	0.000000	0.000017	0.000003	0.000000	0.000000
16.514743	17.577594	15.941884	-2.412584	2.191002	2.854709	0.000000	0.346470	0.000000	0.000019	0.000003	0.000000	0.000000
17.063803	20.001502	13.901639	-1.975931	1.546817	3.021206	0.000000	0.259127	0.000000	0.000020	0.000003	0.000000	0.000000
17.612863	21.865969	12.504497	-1.399708	1.012809	3.138414	0.000000	0.167187	0.000000	0.000022	0.000002	0.000000	0.000000
18.161923	23.039296	11.650943	-0.724616	0.550940	3.204252	0.000000	0.072283	0.000000	0.000022	0.000001	0.000000	0.000000
18.710983	23.438607	11.280181	0.001659	0.128314	3.217552	0.000000	-0.023904	0.000000	0.000023	0.000000	0.000000	0.000000
19.009556	23.477996	11.194062	-0.072353	0.130653	3.212925	0.000000	-0.015499	0.000000	0.000023	0.000000	0.000000	0.000000
19.342889	23.530989	11.117055	-0.086625	0.100367	3.207758	0.000000	-0.015499	0.000000	0.000023	0.000000	0.000000	0.000000
19.676223	23.593496	11.060239	-0.100898	0.070081	3.202592	0.000000	-0.015499	0.000000	0.000023	0.000000	0.000000	0.000000
20.010806	23.666100	11.023378	-0.232478	0.094298	3.197426	0.000000	0.000343	0.000000	0.000023	0.000001	0.000000	0.000000
20.308129	23.808279	10.975395	-0.307915	0.095758	3.197528	0.000000	0.008696	0.000000	0.000024	0.000001	0.000000	0.000000
20.857189	23.735769	11.092318	0.439195	-0.309967	3.176079	0.000000	-0.086710	0.000000	0.000024	-0.000000	0.000000	0.000000
21.406249	22.855093	11.664212	1.155281	-0.737769	3.102593	0.000000	-0.180578	0.000000	0.000023	-0.000001	0.000000	0.000000
21.955309	21.228456	12.731812	1.789764	-1.218121	2.978373	0.000000	-0.271243	0.000000	0.000023	-0.000002	0.000000	0.000000
22.504369	18.970757	14.371160	2.297827	-1.785237	2.805621	0.000000	-0.357096	0.000000	0.000022	-0.000002	0.000000	0.000000
22.950329	17.191445	15.843029	1.706100	-1.501290	2.663667	0.000000	-0.279876	0.000000	0.000021	-0.000002	0.000000	0.000000
23.391289	15.916125	17.016559	1.197016	-1.149889	2.556578	0.000000	-0.206299	0.000000	0.000020	-0.000001	0.000000	0.000000
23.832249	15.064056	17.855839	0.742620	-0.746168	2.481385	0.000000	-0.135070	0.000000	0.000020	-0.000001	0.000000	0.000000
24.273209	14.596308	18.322681	0.322152	-0.308498	2.437232	0.000000	-0.065381	0.000000	0.000019	-0.000000	0.000000	0.000000
24.715418	14.491633	18.395600	-0.048153	0.098036	2.423613	0.000000	-0.002378	0.000000	0.000019	0.000000	0.000000	0.000000
25.012741	14.526381	18.342155	-0.068717	0.081718	2.422906	0.000000	-0.002378	0.000000	0.000019	0.000000	0.000000	0.000000
25.346075	14.579878	18.293774	-0.091773	0.063424	2.422113	0.000000	-0.002378	0.000000	0.000019	0.000000	0.000000	0.000000
25.679408	14.648745	18.257590	-0.114828	0.045129	2.421320	0.000000	-0.002378	0.000000	0.000020	0.000000	0.000000	0.000000
26.013991	14.733028	18.233905	-0.018445	-0.121156	2.420500	0.000000	-0.022015	0.000000	0.000020	0.000000	0.000000	0.000000
26.311314	14.749998	18.310869	-0.002468	-0.182597	2.413955	0.000000	-0.027933	0.000000	0.000020	-0.000000	0.000000	0.000000
26.752274	14.933896	18.273330	-0.416153	0.267403	2.416750	0.000000	0.040623	0.000000	0.000020	0.000000	0.000000	0.000000
27.193234	15.489604	17.842796	-0.848851	0.705236	2.449849	0.000000	0.109643	0.000000	0.000020	0.000001	0.000000	0.000000
27.634194	16.442511	17.038857	-1.320330	1.110982	2.513628	0.000000	0.179911	0.000000	0.000021	0.000002	0.000000	0.000000
28.075154	17.836154	15.898091	-1.852131	1.466179	2.608815	0.000000	0.252228	0.000000	0.000021	0.000002	0.000000	0.000000
28.521114	19.758413	14.455217	-2.473521	1.755577	2.738096	0.000000	0.327861	0.000000	0.000022	0.000003	0.000000	0.000000
29.070174	22.201617	12.847605	-1.949930	1.189640	2.895442	0.000000	0.244445	0.000000	0.000024	0.000002	0.000000	0.000000
29.619234	23.990357	11.811561	-1.288606	0.708438	3.005727	0.000000	0.156693	0.000000	0.000025	0.000001	0.000000	0.000000
30.168294	24.998285	11.273291	-0.536261	0.277697	3.066997	0.000000	0.066161	0.000000	0.000025	0.000000	0.000000	0.000000
30.717354	25.154207	11.194454	0.253963	-0.133265	3.078165	0.000000	-0.025544	0.000000	0.000025	-0.000000	0.000000	0.000000
31.015927	25.045461	11.264620	0.175963	-0.130982	3.072939	0.000000	-0.017503	0.000000	0.000025	-0.000000	0.000000	0.000000
31.349260	24.932726	11.361974	0.162242	-0.161080	3.067105	0.000000	-0.017503	0.000000	0.000025	-0.000000	0.000000	0.000000
31.682593	24.829139	11.479394	0.148521	-0.191179	3.061271	0.000000	-0.017503	0.000000	0.000024	-0.000000	0.000000	0.000000
32.017177	24.734361	11.617433	0.134748	-0.221391	3.055415	0.000000	-0.017503	0.000000	0.000024	-0.000000	0.000000	0.000000
32.314499	24.657873	11.757064	0.058096	-0.217525	3.050211	0.000000	-0.009535	0.000000	0.000024	-0.000000	0.000000	0.000000
32.863559	24.171597	12.235131	0.822313	-0.658314	3.020089	0.000000	-0.100027	0.000000	0.000024	-0.000001	0.000000	0.000000
33.412619	22.873203	13.219990	1.528446	-1.145992	2.940696	0.000000	-0.188745	0.000000	0.000023	-0.000002	0.000000	0.000000
33.961679	20.854402	14.781791	2.126616	-1.715297	2.813441	0.000000	-0.274115	0.000000	0.000022	-0.000003	0.000000	0.000000
34.510739	18.257794	17.031778	2.574574	-2.406779	2.640581	0.000000	-0.354623	0.000000	0.000020	-0.000003	0.000000	0.000000
34.956699	16.238805	19.044322	1.968934	-2.087212	2.498779	0.000000	-0.281682	0.000000	0.000019	-0.000003	0.000000	0.000000
35.397659	14.733258	20.708946	1.458265	-1.673422	2.389953	0.000000	-0.212378	0.000000	0.000018	-0.000002	0.000000	0.000000
35.838619	13.647112	21.973544	1.014219	-1.183493	2.311126	0.000000	-0.145492	0.000000	0.000017	-0.000002	0.000000	0.000000
36.279579	12.930742	22.780577	0.616511	-0.639716	2.261400	0.000000	-0.080263	0.000000	0.000016	-0.000001	0.000000	0.000000
36.721789	12.550726	23.093636	0.277637	-0.123511	2.240181	0.000000	-0.021441	0.000000	0.000015	-0.000001	0.000000	0.000000
37.019112	12.393217	23.170968	0.252122	-0.136582	2.233806	0.000000	-0.021441	0.000000	0.000015	-0.000001	0.000000	0.000000
37.352445	12.234671	23.266907	0.223516	-0.151236	2.226659	0.000000	-0.021441	0.000000	0.000015	-0.000001	0.000000	0.000000
37.685779	12.095196	23.372616	0.194909	-0.165890	2.219513	0.000000	-0.021441	0.000000	0.000014	-0.000001	0.000000	0.000000
38.020362	11.974376	23.488545	0.166196	-0.180599	2.212339	0.000000	-0.021441	0.000000	0.000014	-0.000001	0.000000	0.000000
38.317684	11.883135	23.599824	0.169818	-0.251537	2.205964	0.000000	-0.026850	0.000000	0.000014	-0.000001	0.000000	0.000000
38.758644	11.884857	23.560258	-0.173737	0.340923	2.208054	0.000000	0.036335	0.000000	0.000013	-0.000001	0.000000	0.000000
39.199604	12.191908	23.003059	-0.525230	0.917871	2.238071	0.000000	0.099935	0.000000	0.000013	-0.000000	0.000000	0.000000
39.640564	12.818318	21.953581	-0.900719	1.453057	2.296356	0.000000	0.164672	0.000000	0.000013	-0.000000	0.000000	0.000000
40.081524	13.792705	20.459573	-1.317359	1.922130	2.383574	0.000000	0.231285	0.000000	0.000013	0.000000	0.000000	0.000000
40.527484	15.177163	18.566438	-1.798013	2.305032	2.502189	0.000000	0.300938	0.000000	0.000013	0.000001	0.000000	0.000000
41.076544	16.943852	16.439004	-1.400599	1.592521	2.646889	0.000000	0.225370	0.000000	0.000013	0.000000	0.000000	0.000000
41.625604	18.216889	15.027488	-0.904253	0.993441	2.748938	0.000000	0.145805	0.000000	0.000013	-0.000000	0.000000	0.000000
42.174664	18.906356	14.231348	-0.344035	0.465122	2.806526	0.000000	0.063653	0.000000	0.000013	-0.000001	0.000000	0.000000
42.723724	18.963551	13.993878	0.240483	-0.030067	2.818631	0.000000	-0.019627	0.000000	0.000012	-0.000001	0.000000	0.000000
43.022297	18.854404	13.996371	0.174621	-0.014844	2.814970	0.000000	-0.012263	0.000000	0.000012	-0.000001	0.000000	0.000000
43.502297	18.699360	14.027086	0.148387	-0.049146	2.809084	0.000000	-0.012263	0.000000	0.000011	-0.000001	0.000000	0.000000
43.982297	18.569502	14.090732	0.122152	-0.083448	2.803198	0.000000	-0.012263	0.000000	0.000011	-0.000001	0.000000	0.000000
44.462297	18.464828	14.187307	0.095918	-0.117750	2.797312	0.000000	-0.012263	0.000000	0.000010	-0.000001	0.000000	0.000000
44.942297	18.385340	14.316812	0.069683	-0.152053	2.791426	0.000000	-0.012263	0.000000	0.000010	-0.000001	0.000000	0.000000
45.423547	18.331155	14.479534	-0.047442	-0.114703	2.785542	0.000000	0.001538	0.000000	0.000009	-0.000001	0.000000	0.000000
45.720870	18.364200	14.553928	-0.111677	-0.097484	2.786000	0.000000	0.008817	0.000000	0.000009	-0.000001	0.000000	0.000000
46.269930	18.177619	14.942439	0.449482	-0.614286	2.768268	0.000000	-0.073315	0.000000	0.000008	-0.000001	0.000000	0.000000
46.818990	17.388685	15.919012	0.978893	-1.174841	2.705731	0.000000	-0.154147	0.000000	0.000007	-0.000002	0.000000	0.000000
47.368050	16.053123	17.553208	1.439159	-1.819079	2.599500	0.000000	-0.232245	0.000000	0.000007	-0.000002	0.000000	0.000000
47.917110	14.265270	19.961426	1.797770	-2.592885	2.451457	0.000000	-0.306223	0.000000	0.000005	-0.000002	0.000000	0.000000
48.363070	12.874008	22.102507	1.332986	-2.187993	2.330188	0.000000	-0.237921	0.000000	0.000005	-0.000002	0.000000	0.000000
48.804030	11.878631	23.816788	0.932872	-1.684824	2.239735	0.000000	-0.172726	0.000000	0.000004	-0.000002	0.000000	0.000000
49.244990	11.216066	25.051686	0.575378	-1.104997	2.177571	0.000000	-0.109498	0.000000	0.000003	-0.000002	0.000000	0.000000
49.685950	10.856043	25.751016	0.244172	-0.474893	2.142986	0.000000	-0.047517	0.000000	0.000002	-0.000002	0.000000	0.000000
50.128160	10.782237	25.882673	-0.049555	0.113298	2.135598	0.000000	0.008686	0.000000	0.000002	-0.000002	0.000000	0.000000
50.425482	10.819924	25.818760	-0.077198	0.101663	2.138181	0.000000	0.008686	0.000000	0.000001	-0.000002	0.000000	0.000000
50.758816	10.881719	25.755333	-0.108189	0.088620	2.141076	0.000000	0.008686	0.000000	0.000001	-0.000002	0.000000	0.000000
51.092149	10.964176	25.700601	-0.139180	0.075576	2.143972	0.000000	0.008686	0.000000	0.000000	-0.000002	0.000000	0.000000
51.426732	11.067494	25.654929	-0.080500	-0.145643	2.146857	0.000000	-0.008731	0.000000	-0.000000	-0.000002	0.000000	0.000000
51.724055	11.123402	25.745054	-0.080261	-0.220613	2.144262	0.000000	-0.013989	0.000000	-0.000001	-0.000002	0.000000	0.000000
52.165015	11.339433	25.653184	-0.411508	0.428161	2.151682	0.000000	0.047674	0.000000	-0.000001	-0.000002	0.000000	0.000000
52.605975	11.854751	24.995584	-0.761555	1.057454	2.186388	0.000000	0.109881	0.000000	-0.000002	-0.000002	0.000000	0.000000
53.046935	12.692902	23.802176	-1.146396	1.638634	2.248773	0.000000	0.173339	0.000000	-0.000003	-0.000002	0.000000	0.000000
53.487895	13.892177	22.127257	-1.583613	2.145258	2.339550	0.000000	0.238771	0.000000	-0.000004	-0.000002	0.000000	0.000000
53.933855	15.527927	20.021994	-2.097407	2.555611	2.461255	0.000000	0.307322	0.000000	-0.000004	-0.000002	0.000000	0.000000
54.482915	17.633929	17.653009	-1.715538	1.784477	2.609815	0.000000	0.233018	0.000000	-0.000005	-0.000002	0.000000	0.000000
55.031975	19.251166	16.056474	-1.212492	1.140447	2.716380	0.000000	0.154581	0.000000	-0.000006	-0.000002	0.000000	0.000000
55.581035	20.265406	15.118672	-0.623802	0.577648	2.779061	0.000000	0.073402	0.000000	-0.000007	-0.000001	0.000000	0.000000
56.130095	20.605006	14.772806	0.008950	0.055994	2.796746	0.000000	-0.009079	0.000000	-0.000008	-0.000001	0.000000	0.000000
56.428668	20.636147	14.722407	-0.059410	0.074204	2.796218	0.000000	-0.001771	0.000000	-0.000008	-0.000001	0.000000	0.000000
56.762001	20.681157	14.680527	-0.075620	0.051438	2.795627	0.000000	-0.001771	0.000000	-0.000008	-0.000001	0.000000	0.000000
57.095334	20.736973	14.653823	-0.091830	0.028672	2.795037	0.000000	-0.001771	0.000000	-0.000009	-0.000001	0.000000	0.000000
57.429918	20.803866	14.642283	-0.108100	0.005821	2.794445	0.000000	-0.001771	0.000000	-0.000009	-0.000001	0.000000	0.000000
57.727240	20.872447	14.644859	-0.177099	0.023781	2.793919	0.000000	0.005529	0.000000	-0.000009	-0.000001	0.000000	0.000000
58.276300	20.710853	14.899933	0.469667	-0.491089	2.774317	0.000000	-0.076829	0.000000	-0.000010	-0.000001	0.000000	0.000000
58.825360	19.853127	15.736173	1.083257	-1.040939	2.709802	0.000000	-0.157825	0.000000	-0.000010	-0.000000	0.000000	0.000000
59.374420	18.359855	17.213141	1.620332	-1.664933	2.601521	0.000000	-0.236021	0.000000	-0.000010	-0.000000	0.000000	0.000000
59.923480	16.336513	19.436039	2.042955	-2.407517	2.451392	0.000000	-0.310031	0.000000	-0.000010	0.000000	0.000000	0.000000
60.369440	14.752885	21.411749	1.520675	-2.004024	2.328420	0.000000	-0.241752	0.000000	-0.000010	-0.000000	0.000000	0.000000
60.810400	13.613909	22.967533	1.072071	-1.510726	2.236264	0.000000	-0.176625	0.000000	-0.000011	-0.000000	0.000000	0.000000
61.251360	12.847553	24.056180	0.672448	-0.948691	2.172357	0.000000	-0.113509	0.000000	-0.000011	-0.000001	0.000000	0.000000
61.692320	12.418805	24.628158	0.303547	-0.343491	2.135970	0.000000	-0.051686	0.000000	-0.000011	-0.000001	0.000000	0.000000
62.134530	12.308130	24.656898	-0.021402	0.216811	2.126694	0.000000	0.004333	0.000000	-0.000011	-0.000001	0.000000	0.000000
62.431853	12.328042	24.531727	-0.045569	0.204185	2.127983	0.000000	0.004333	0.000000	-0.000012	-0.000001	0.000000	0.000000
62.765186	12.367453	24.400321	-0.072664	0.190031	2.129427	0.000000	0.004333	0.000000	-0.000012	-0.000001	0.000000	0.000000
63.098520	12.424927	24.278352	-0.099759	0.175877	2.130872	0.000000	0.004333	0.000000	-0.000013	-0.000001	0.000000	0.000000
63.433103	12.500782	24.165415	-0.126955	0.161669	2.132322	0.000000	0.004333	0.000000	-0.000013	-0.000001	0.000000	0.000000
63.730426	12.583461	24.073033	-0.120261	0.090002	2.133611	0.000000	-0.000900	0.000000	-0.000013	-0.000001	0.000000	0.000000
64.171386	12.849788	23.728547	-0.486002	0.688243	2.146753	0.000000	0.060563	0.000000	-0.000014	-0.000001	0.000000	0.000000
64.612346	13.447204	22.868307	-0.873947	1.255169	2.187125	0.000000	0.122715	0.000000	-0.000015	-0.000002	0.000000	0.000000
65.053306	14.403004	21.531453	-1.301821	1.764986	2.255185	0.000000	0.186265	0.000000	-0.000015	-0.000002	0.000000	0.000000
65.494266	15.760856	19.778810	-1.789171	2.194497	2.351709	0.000000	0.251937	0.000000	-0.000017	-0.000003	0.000000	0.000000
65.940226	17.605955	17.665325	-2.362954	2.524914	2.479368	0.000000	0.320880	0.000000	-0.000018	-0.000003	0.000000	0.000000
66.489286	19.971282	15.301024	-1.919504	1.806595	2.635189	0.000000	0.245872	0.000000	-0.000019	-0.000002	0.000000	0.000000
67.038346	21.771860	13.650655	-1.340470	1.216956	2.748566	0.000000	0.166502	0.000000	-0.000021	-0.000002	0.000000	0.000000
67.587406	22.880507	12.596667	-0.666752	0.713998	2.817488	0.000000	0.084179	0.000000	-0.000021	-0.000001	0.000000	0.000000
68.136466	23.218913	12.063988	0.054062	0.261896	2.840732	0.000000	0.000363	0.000000	-0.000022	-0.000000	0.000000	0.000000
68.435038	23.226703	11.896797	-0.019475	0.266543	2.843057	0.000000	0.007787	0.000000	-0.000022	-0.000001	0.000000	0.000000
68.768372	23.244473	11.729105	-0.033832	0.236534	2.845653	0.000000	0.007787	0.000000	-0.000022	-0.000001	0.000000	0.000000
69.101705	23.271813	11.581419	-0.048189	0.206524	2.848248	0.000000	0.007787	0.000000	-0.000022	-0.000001	0.000000	0.000000
69.436288	23.308881	11.453298	-0.062599	0.176403	2.850854	0.000000	0.007787	0.000000	-0.000022	-0.000001	0.000000	0.000000
69.733611	23.349913	11.356359	-0.136426	0.179313	2.853169	0.000000	0.015243	0.000000	-0.000023	-0.000001	0.000000	0.000000
70.282671	23.098699	11.386905	0.591252	-0.235274	2.838358	0.000000	-0.069113	0.000000	-0.000023	0.000000	0.000000	0.000000
