#ParticleID	Turn	x[m]	xp	y[m]	yp	z[m]	dE[GeV]# s	beta_x	beta_y	alpha_x	alpha_y	D_x	D_y	D_px	D_py	orbit_x	orbit_px	orbit_y	orbit_py
0.300000	11.806068	25.049742	-0.010247	-0.026921	2.618191	0.000000	-0.000017	0.000000	-0.000001	0.000002	0.000000	0.000000
0.601250	11.819930	25.069588	-0.035766	-0.038955	2.618185	0.000000	-0.000017	0.000000	-0.000001	0.000002	0.000000	0.000000
0.898573	11.848687	25.096284	-0.031896	-0.112376	2.618180	0.000000	-0.006437	0.000000	-0.000000	0.000002	0.000000	0.000000
1.339533	12.028854	24.916988	-0.378232	0.517432	2.631634	0.000000	0.067522	0.000000	0.000000	0.000002	0.000000	0.000000
1.780493	12.520898	24.190552	-0.741848	1.123697	2.677840	0.000000	0.142249	0.000000	0.000001	0.000002	0.000000	0.000000
2.221453	13.347299	22.950027	-1.139357	1.678835	2.757323	0.000000	0.218597	0.000000	0.000002	0.000002	0.000000	0.000000
2.662413	14.545813	21.251856	-1.588920	2.157587	2.870989	0.000000	0.297435	0.000000	0.000003	0.000002	0.000000	0.000000
3.108373	16.191920	19.148403	-2.115362	2.539304	3.021993	0.000000	0.380150	0.000000	0.000003	0.000002	0.000000	0.000000
3.657433	18.302808	16.785869	-1.706428	1.788965	3.205446	0.000000	0.287112	0.000000	0.000004	0.000002	0.000000	0.000000
4.206493	19.895389	15.172909	-1.176961	1.166050	3.336340	0.000000	0.188982	0.000000	0.000005	0.000002	0.000000	0.000000
4.755553	20.857172	14.194636	-0.564359	0.626190	3.412353	0.000000	0.087499	0.000000	0.000006	0.000001	0.000000	0.000000
5.304613	21.120221	13.781370	0.088107	0.130932	3.432138	0.000000	-0.015535	0.000000	0.000007	0.000001	0.000000	0.000000
5.603185	21.104784	13.688332	0.018774	0.144670	3.430176	0.000000	-0.006568	0.000000	0.000007	0.000001	0.000000	0.000000
5.936519	21.097534	13.600173	0.002975	0.119808	3.427986	0.000000	-0.006568	0.000000	0.000008	0.000001	0.000000	0.000000
6.269852	21.100818	13.528588	-0.012825	0.094947	3.425797	0.000000	-0.006568	0.000000	0.000008	0.000001	0.000000	0.000000
6.604435	21.114706	13.473402	-0.028684	0.069992	3.423599	0.000000	-0.006568	0.000000	0.000008	0.000001	0.000000	0.000000
6.901758	21.135953	13.438375	-0.097997	0.082927	3.421645	0.000000	0.002371	0.000000	0.000009	0.000001	0.000000	0.000000
7.450818	20.883376	13.608251	0.555293	-0.394147	3.394746	0.000000	-0.100208	0.000000	0.000009	0.000001	0.000000	0.000000
7.999878	19.930800	14.314261	1.169359	-0.899296	3.311931	0.000000	-0.201010	0.000000	0.000010	0.000001	0.000000	0.000000
8.548938	18.345510	15.606694	1.700828	-1.468499	3.174668	0.000000	-0.298246	0.000000	0.000010	0.000000	0.000000	0.000000
9.097998	16.239484	17.577605	2.112159	-2.142300	2.985392	0.000000	-0.390192	0.000000	0.000010	-0.000000	0.000000	0.000000
9.543958	14.596443	19.333760	1.585218	-1.778975	2.829688	0.000000	-0.308488	0.000000	0.000010	0.000000	0.000000	0.000000
9.984918	13.401476	20.712562	1.134985	-1.335944	2.710903	0.000000	-0.230781	0.000000	0.000010	0.000001	0.000000	0.000000
10.425878	12.579298	21.672247	0.736606	-0.832128	2.625771	0.000000	-0.155703	0.000000	0.000011	0.000001	0.000000	0.000000
10.866838	12.092346	22.169150	0.371881	-0.290451	2.573325	0.000000	-0.082397	0.000000	0.000011	0.000001	0.000000	0.000000
11.309048	11.918241	22.180139	0.053265	0.209994	2.552945	0.000000	-0.016291	0.000000	0.000012	0.000001	0.000000	0.000000
11.606371	11.894005	22.059428	0.028248	0.195998	2.548101	0.000000	-0.016291	0.000000	0.000012	0.000001	0.000000	0.000000
12.086371	11.886274	21.882116	-0.012141	0.173403	2.540280	0.000000	-0.016291	0.000000	0.000013	0.000001	0.000000	0.000000
12.566371	11.917316	21.726495	-0.052530	0.150807	2.532460	0.000000	-0.016291	0.000000	0.000013	0.000001	0.000000	0.000000
13.046371	11.987131	21.592566	-0.092918	0.128212	2.524640	0.000000	-0.016291	0.000000	0.000014	0.000001	0.000000	0.000000
13.526371	12.095719	21.480328	-0.133307	0.105617	2.516820	0.000000	-0.016291	0.000000	0.000014	0.000001	0.000000	0.000000
14.007621	12.243515	21.389574	-0.173801	0.082963	2.508979	0.000000	-0.016291	0.000000	0.000015	0.000001	0.000000	0.000000
14.304943	12.354303	21.344402	-0.168526	0.016632	2.504135	0.000000	-0.022431	0.000000	0.000015	0.000001	0.000000	0.000000
14.745903	12.661415	21.096135	-0.530578	0.544241	2.509874	0.000000	0.048489	0.000000	0.000016	0.000002	0.000000	0.000000
15.186863	13.297270	20.391742	-0.916870	1.047087	2.546978	0.000000	0.119960	0.000000	0.000017	0.000002	0.000000	0.000000
15.627823	14.290919	19.263273	-1.345052	1.502292	2.615868	0.000000	0.192798	0.000000	0.000018	0.000003	0.000000	0.000000
16.068783	15.687757	17.762072	-1.834685	1.889144	2.717330	0.000000	0.267832	0.000000	0.000019	0.000003	0.000000	0.000000
16.514743	17.575265	15.934943	-2.412898	2.190784	2.854214	0.000000	0.346378	0.000000	0.000021	0.000004	0.000000	0.000000
17.063803	19.999596	13.894847	-1.976383	1.546763	3.020666	0.000000	0.259052	0.000000	0.000022	0.000003	0.000000	0.000000
17.612863	21.864620	12.497678	-1.400266	1.012914	3.137837	0.000000	0.167131	0.000000	0.000024	0.000002	0.000000	0.000000
18.161923	23.038601	11.643918	-0.725240	0.551213	3.203649	0.000000	0.072245	0.000000	0.000025	0.000001	0.000000	0.000000
18.710983	23.438614	11.272755	0.001012	0.128774	3.216934	0.000000	-0.023922	0.000000	0.000025	0.000001	0.000000	0.000000
19.009556	23.478389	11.186380	-0.073000	0.131072	3.212301	0.000000	-0.015518	0.000000	0.000025	0.000001	0.000000	0.000000
19.342889	23.531813	11.109103	-0.087273	0.100762	3.207128	0.000000	-0.015518	0.000000	0.000026	0.000001	0.000000	0.000000
19.676223	23.594753	11.052032	-0.101546	0.070451	3.201955	0.000000	-0.015518	0.000000	0.000026	0.000001	0.000000	0.000000
20.010806	23.667791	11.014931	-0.233136	0.094603	3.196783	0.000000	0.000321	0.000000	0.000026	0.000001	0.000000	0.000000
20.308129	23.810363	10.966773	-0.308580	0.096016	3.196878	0.000000	0.008672	0.000000	0.000026	0.000001	0.000000	0.000000
20.857189	23.738542	11.083279	0.438612	-0.309460	3.175421	0.000000	-0.086713	0.000000	0.000026	-0.000000	0.000000	0.000000
21.406249	22.858441	11.654465	1.154823	-0.736979	3.101939	0.000000	-0.180560	0.000000	0.000026	-0.000001	0.000000	0.000000
21.955309	21.232224	12.721017	1.789463	-1.216991	2.977734	0.000000	-0.271204	0.000000	0.000025	-0.000002	0.000000	0.000000
22.504369	18.974760	14.358901	2.297703	-1.783686	2.805010	0.000000	-0.357037	0.000000	0.000024	-0.000003	0.000000	0.000000
22.950329	17.195586	15.829512	1.705913	-1.500031	2.663079	0.000000	-0.279833	0.000000	0.000023	-0.000002	0.000000	0.000000
23.391289	15.920461	17.002081	1.196758	-1.148978	2.556006	0.000000	-0.206270	0.000000	0.000022	-0.000001	0.000000	0.000000
23.832249	15.068654	17.840727	0.742279	-0.745648	2.480822	0.000000	-0.135056	0.000000	0.000022	-0.000001	0.000000	0.000000
24.273209	14.601250	18.307291	0.321713	-0.308391	2.436672	0.000000	-0.065381	0.000000	0.000022	-0.000000	0.000000	0.000000
24.715418	14.497014	18.380301	-0.048698	0.097764	2.423049	0.000000	-0.002391	0.000000	0.000022	0.000000	0.000000	0.000000
25.012741	14.532084	18.327022	-0.069256	0.081433	2.422338	0.000000	-0.002391	0.000000	0.000022	0.000000	0.000000	0.000000
25.346075	14.585938	18.278836	-0.092304	0.063124	2.421541	0.000000	-0.002391	0.000000	0.000022	0.000000	0.000000	0.000000
25.679408	14.655157	18.242856	-0.115352	0.044816	2.420744	0.000000	-0.002391	0.000000	0.000022	0.000000	0.000000	0.000000
26.013991	14.739787	18.219385	-0.018907	-0.121366	2.419919	0.000000	-0.022023	0.000000	0.000022	0.000000	0.000000	0.000000
26.311314	14.757030	18.296478	-0.002905	-0.182784	2.413371	0.000000	-0.027940	0.000000	0.000022	0.000000	0.000000	0.000000
26.752274	14.941390	18.259276	-0.416768	0.266829	2.416159	0.000000	0.040601	0.000000	0.000022	0.000001	0.000000	0.000000
27.193234	15.497729	17.829411	-0.849673	0.704302	2.449245	0.000000	0.109605	0.000000	0.000023	0.000001	0.000000	0.000000
27.634194	16.451466	17.026440	-1.321396	1.109729	2.513004	0.000000	0.179857	0.000000	0.000023	0.000002	0.000000	0.000000
28.075154	17.846174	15.886898	-1.853491	1.464665	2.608164	0.000000	0.252158	0.000000	0.000024	0.000002	0.000000	0.000000
28.521114	19.769801	14.445466	-2.475238	1.753871	2.737410	0.000000	0.327774	0.000000	0.000025	0.000003	0.000000	0.000000
29.070174	22.214734	12.839508	-1.951343	1.188316	2.894713	0.000000	0.244380	0.000000	0.000027	0.000002	0.000000	0.000000
29.619234	24.004812	11.804753	-1.289615	0.707401	3.004970	0.000000	0.156652	0.000000	0.000028	0.000001	0.000000	0.000000
30.168294	25.013592	11.267499	-0.536794	0.276873	3.066225	0.000000	0.066146	0.000000	0.000028	0.000000	0.000000	0.000000
30.717354	25.169820	11.189476	0.253942	-0.133933	3.077390	0.000000	-0.025534	0.000000	0.000028	-0.000001	0.000000	0.000000
31.015927	25.061108	11.260054	0.175912	-0.131680	3.072167	0.000000	-0.017495	0.000000	0.000028	-0.000000	0.000000	0.000000
31.349260	24.948404	11.357880	0.162199	-0.161796	3.066335	0.000000	-0.017495	0.000000	0.000028	-0.000000	0.000000	0.000000
31.682593	24.844842	11.475783	0.148487	-0.191913	3.060503	0.000000	-0.017495	0.000000	0.000028	-0.000000	0.000000	0.000000
32.017177	24.750085	11.614319	0.134723	-0.222142	3.054650	0.000000	-0.017495	0.000000	0.000028	-0.000000	0.000000	0.000000
32.314499	24.673609	11.754402	0.058039	-0.218300	3.049448	0.000000	-0.009530	0.000000	0.000028	-0.000000	0.000000	0.000000
32.863559	24.187109	12.233297	0.822776	-0.659057	3.019336	0.000000	-0.099997	0.000000	0.000027	-0.000001	0.000000	0.000000
33.412619	22.887934	13.218978	1.529395	-1.146756	2.939966	0.000000	-0.188691	0.000000	0.000026	-0.000002	0.000000	0.000000
33.961679	20.867853	14.781654	2.127986	-1.716136	2.812747	0.000000	-0.274038	0.000000	0.000025	-0.000003	0.000000	0.000000
34.510739	18.269554	17.032631	2.576266	-2.407753	2.639935	0.000000	-0.354525	0.000000	0.000023	-0.000004	0.000000	0.000000
34.956699	16.249222	19.046077	1.970264	-2.088254	2.498173	0.000000	-0.281600	0.000000	0.000021	-0.000003	0.000000	0.000000
35.397659	14.742637	20.711633	1.459296	-1.674484	2.389381	0.000000	-0.212311	0.000000	0.000020	-0.000003	0.000000	0.000000
35.838619	13.655695	21.977158	1.015000	-1.184527	2.310580	0.000000	-0.145439	0.000000	0.000019	-0.000002	0.000000	0.000000
36.279579	12.938734	22.785073	0.617076	-0.640674	2.260874	0.000000	-0.080224	0.000000	0.000018	-0.000002	0.000000	0.000000
36.721789	12.558303	23.098930	0.278031	-0.124361	2.239669	0.000000	-0.021415	0.000000	0.000018	-0.000001	0.000000	0.000000
37.019112	12.400557	23.176767	0.252526	-0.137432	2.233302	0.000000	-0.021415	0.000000	0.000017	-0.000001	0.000000	0.000000
37.352445	12.241738	23.273273	0.223931	-0.152086	2.226165	0.000000	-0.021415	0.000000	0.000017	-0.000001	0.000000	0.000000
37.685779	12.101982	23.379548	0.195336	-0.166740	2.219027	0.000000	-0.021415	0.000000	0.000017	-0.000001	0.000000	0.000000
38.020362	11.980873	23.496046	0.166634	-0.181449	2.211862	0.000000	-0.021415	0.000000	0.000016	-0.000001	0.000000	0.000000
38.317684	11.889368	23.607830	0.170281	-0.252404	2.205496	0.000000	-0.026822	0.000000	0.000016	-0.000001	0.000000	0.000000
38.758644	11.890743	23.568932	-0.173411	0.340280	2.207595	0.000000	0.036351	0.000000	0.000015	-0.000001	0.000000	0.000000
39.199604	12.197562	23.012191	-0.525026	0.917481	2.237616	0.000000	0.099939	0.000000	0.000015	-0.000000	0.000000	0.000000
39.640564	12.823843	21.962938	-0.900628	1.452938	2.295900	0.000000	0.164665	0.000000	0.000015	-0.000000	0.000000	0.000000
40.081524	13.798198	20.468913	-1.317377	1.922288	2.383112	0.000000	0.231266	0.000000	0.000015	0.000000	0.000000	0.000000
40.527484	15.182722	18.575515	-1.798141	2.305461	2.501716	0.000000	0.300907	0.000000	0.000015	0.000001	0.000000	0.000000
41.076544	16.949430	16.447749	-1.400506	1.592702	2.646404	0.000000	0.225354	0.000000	0.000016	0.000000	0.000000	0.000000
41.625604	18.222247	15.036162	-0.903946	0.993388	2.748448	0.000000	0.145805	0.000000	0.000016	-0.000000	0.000000	0.000000
42.174664	18.911267	14.240211	-0.343535	0.464830	2.806040	0.000000	0.063669	0.000000	0.000015	-0.000001	0.000000	0.000000
42.723724	18.967823	14.003202	0.241141	-0.030619	2.818158	0.000000	-0.019596	0.000000	0.000015	-0.000001	0.000000	0.000000
43.022297	18.858289	14.006007	0.175269	-0.015358	2.814506	0.000000	-0.012233	0.000000	0.000014	-0.000001	0.000000	0.000000
43.502297	18.702624	14.037204	0.149034	-0.049637	2.808634	0.000000	-0.012233	0.000000	0.000014	-0.000001	0.000000	0.000000
43.982297	18.572145	14.101309	0.122799	-0.083916	2.802763	0.000000	-0.012233	0.000000	0.000013	-0.000001	0.000000	0.000000
44.462297	18.466850	14.198323	0.096564	-0.118195	2.796891	0.000000	-0.012233	0.000000	0.000013	-0.000001	0.000000	0.000000
44.942297	18.386742	14.328244	0.070329	-0.152474	2.791020	0.000000	-0.012233	0.000000	0.000012	-0.000001	0.000000	0.000000
45.423547	18.331935	14.491360	-0.046801	-0.115043	2.785151	0.000000	0.001566	0.000000	0.000011	-0.000001	0.000000	0.000000
45.720870	18.364598	14.565951	-0.111034	-0.097778	2.785617	0.000000	0.008844	0.000000	0.000011	-0.000001	0.000000	0.000000
46.269930	18.177310	14.954986	0.450121	-0.614952	2.767902	0.000000	-0.073276	0.000000	0.000010	-0.000001	0.000000	0.000000
46.818990	17.387698	15.932518	0.979481	-1.175929	2.705390	0.000000	-0.154097	0.000000	0.000009	-0.000002	0.000000	0.000000
47.368050	16.051537	17.568172	1.439655	-1.820664	2.599190	0.000000	-0.232184	0.000000	0.000008	-0.000002	0.000000	0.000000
47.917110	14.263206	19.978454	1.798140	-2.595081	2.451184	0.000000	-0.306152	0.000000	0.000007	-0.000002	0.000000	0.000000
48.363070	12.871615	22.121331	1.333357	-2.189805	2.329944	0.000000	-0.237857	0.000000	0.000006	-0.000002	0.000000	0.000000
48.804030	11.875904	23.837010	0.933261	-1.686170	2.239519	0.000000	-0.172668	0.000000	0.000005	-0.000002	0.000000	0.000000
49.244990	11.212981	25.072867	0.575804	-1.105816	2.177378	0.000000	-0.109445	0.000000	0.000004	-0.000002	0.000000	0.000000
49.685950	10.852559	25.772672	0.244654	-0.475148	2.142816	0.000000	-0.047469	0.000000	0.000003	-0.000002	0.000000	0.000000
50.128160	10.778293	25.904300	-0.049005	0.113566	2.135448	0.000000	0.008730	0.000000	0.000003	-0.000002	0.000000	0.000000
50.425482	10.815655	25.840225	-0.076656	0.101941	2.138044	0.000000	0.008730	0.000000	0.000002	-0.000002	0.000000	0.000000
50.758816	10.877093	25.776609	-0.107657	0.088907	2.140954	0.000000	0.008730	0.000000	0.000002	-0.000002	0.000000	0.000000
51.092149	10.959198	25.721683	-0.138658	0.075873	2.143865	0.000000	0.008730	0.000000	0.000001	-0.000002	0.000000	0.000000
51.426732	11.062170	25.675809	-0.080031	-0.145505	2.146765	0.000000	-0.008686	0.000000	0.000000	-0.000002	0.000000	0.000000
51.724055	11.117802	25.765848	-0.079816	-0.220516	2.144183	0.000000	-0.013944	0.000000	-0.000000	-0.000002	0.000000	0.000000
52.165015	11.333381	25.673650	-0.410925	0.428806	2.151623	0.000000	0.047718	0.000000	-0.000001	-0.000002	0.000000	0.000000
52.605975	11.848116	25.015251	-0.760808	1.058617	2.186347	0.000000	0.109923	0.000000	-0.000002	-0.000002	0.000000	0.000000
53.046935	12.685522	23.820607	-1.145449	1.640262	2.248751	0.000000	0.173380	0.000000	-0.000002	-0.000002	0.000000	0.000000
53.487895	13.883858	22.144074	-1.582423	2.147276	2.339546	0.000000	0.238812	0.000000	-0.000003	-0.000002	0.000000	0.000000
53.933855	15.518418	20.036868	-2.095919	2.557930	2.461269	0.000000	0.307363	0.000000	-0.000004	-0.000002	0.000000	0.000000
54.482915	17.622916	17.665667	-1.714304	1.786219	2.609851	0.000000	0.233058	0.000000	-0.000005	-0.000002	0.000000	0.000000
55.031975	19.238978	16.067477	-1.211599	1.141737	2.716438	0.000000	0.154619	0.000000	-0.000006	-0.000002	0.000000	0.000000
55.581035	20.252453	15.128463	-0.623313	0.578578	2.779140	0.000000	0.073438	0.000000	-0.000007	-0.000001	0.000000	0.000000
56.130095	20.591756	14.781742	0.009001	0.056630	2.796844	0.000000	-0.009046	0.000000	-0.000008	-0.000001	0.000000	0.000000
56.428668	20.622849	14.730947	-0.059334	0.074873	2.796326	0.000000	-0.001738	0.000000	-0.000008	-0.000001	0.000000	0.000000
56.762001	20.667811	14.688616	-0.075554	0.052118	2.795747	0.000000	-0.001738	0.000000	-0.000008	-0.000001	0.000000	0.000000
57.095334	20.723588	14.661456	-0.091774	0.029363	2.795168	0.000000	-0.001738	0.000000	-0.000009	-0.000001	0.000000	0.000000
57.429918	20.790447	14.649449	-0.108055	0.006523	2.794587	0.000000	-0.001738	0.000000	-0.000009	-0.000001	0.000000	0.000000
57.727240	20.859004	14.651605	-0.177028	0.024511	2.794071	0.000000	0.005563	0.000000	-0.000010	-0.000001	0.000000	0.000000
58.276300	20.697579	14.905981	0.469288	-0.490538	2.774486	0.000000	-0.076800	0.000000	-0.000010	-0.000001	0.000000	0.000000
58.825360	19.840505	15.741694	1.082457	-1.040527	2.709987	0.000000	-0.157801	0.000000	-0.000011	-0.000001	0.000000	0.000000
59.374420	18.348318	17.218272	1.619166	-1.664630	2.601716	0.000000	-0.236004	0.000000	-0.000011	-0.000000	0.000000	0.000000
59.923480	16.326422	19.440886	2.041506	-2.407301	2.451595	0.000000	-0.310020	0.000000	-0.000011	0.000000	0.000000	0.000000
60.369440	14.743946	21.416322	1.519531	-2.003626	2.328629	0.000000	-0.241736	0.000000	-0.000011	-0.000000	0.000000	0.000000
60.810400	13.605865	22.971682	1.071178	-1.510165	2.236482	0.000000	-0.176603	0.000000	-0.000011	-0.000000	0.000000	0.000000
61.251360	12.840202	24.059771	0.671764	-0.947993	2.172585	0.000000	-0.113482	0.000000	-0.000011	-0.000001	0.000000	0.000000
61.692320	12.411976	24.631084	0.303042	-0.342687	2.136211	0.000000	-0.051652	0.000000	-0.000012	-0.000001	0.000000	0.000000
62.134530	12.301677	24.659080	-0.021767	0.217678	2.126951	0.000000	0.004372	0.000000	-0.000012	-0.000001	0.000000	0.000000
62.431853	12.321810	24.533393	-0.045947	0.205049	2.128252	0.000000	0.004372	0.000000	-0.000013	-0.000001	0.000000	0.000000
62.765186	12.361478	24.401413	-0.073057	0.190891	2.129710	0.000000	0.004372	0.000000	-0.000013	-0.000001	0.000000	0.000000
63.098520	12.419219	24.278872	-0.100166	0.176733	2.131167	0.000000	0.004372	0.000000	-0.000014	-0.000001	0.000000	0.000000
63.433103	12.495351	24.165363	-0.127377	0.162522	2.132631	0.000000	0.004372	0.000000	-0.000014	-0.000001	0.000000	0.000000
63.730426	12.578285	24.072475	-0.120708	0.090852	2.133931	0.000000	-0.000862	0.000000	-0.000014	-0.000001	0.000000	0.000000
64.171386	12.844959	23.727254	-0.486344	0.689055	2.147092	0.000000	0.060609	0.000000	-0.000015	-0.000002	0.000000	0.000000
64.612346	13.442636	22.866327	-0.874199	1.255908	2.187486	0.000000	0.122771	0.000000	-0.000016	-0.000002	0.000000	0.000000
65.053306	14.398622	21.528866	-1.301994	1.765617	2.255573	0.000000	0.186331	0.000000	-0.000017	-0.000002	0.000000	0.000000
65.494266	15.756595	19.775724	-1.789273	2.194993	2.352128	0.000000	0.252013	0.000000	-0.000018	-0.000003	0.000000	0.000000
65.940226	17.601755	17.661868	-2.362989	2.525248	2.479824	0.000000	0.320967	0.000000	-0.000020	-0.000003	0.000000	0.000000
66.489286	19.967224	15.297187	-1.919726	1.806956	2.635689	0.000000	0.245943	0.000000	-0.000021	-0.000003	0.000000	0.000000
67.038346	21.768143	13.646396	-1.340863	1.217369	2.749101	0.000000	0.166557	0.000000	-0.000023	-0.000002	0.000000	0.000000
67.587406	22.877303	12.591913	-0.667288	0.714492	2.818048	0.000000	0.084216	0.000000	-0.000023	-0.000001	0.000000	0.000000
68.136466	23.216360	12.058630	0.053420	0.262507	2.841307	0.000000	0.000382	0.000000	-0.000024	-0.000001	0.000000	0.000000
68.435038	23.224531	11.891089	-0.020113	0.267120	2.843639	0.000000	0.007807	0.000000	-0.000024	-0.000001	0.000000	0.000000
68.768372	23.242726	11.723020	-0.034472	0.237087	2.846241	0.000000	0.007807	0.000000	-0.000024	-0.000001	0.000000	0.000000
69.101705	23.270493	11.574973	-0.048830	0.207055	2.848844	0.000000	0.007807	0.000000	-0.000025	-0.000001	0.000000	0.000000
69.436288	23.307991	11.446504	-0.063242	0.176910	2.851456	0.000000	0.007807	0.000000	-0.000025	-0.000001	0.000000	0.000000
69.733611	23.349405	11.349270	-0.137070	0.179782	2.853777	0.000000	0.015265	0.000000	-0.000025	-0.000001	0.000000	0.000000
70.282671	23.098902	11.379191	0.590610	-0.234597	2.838973	0.000000	-0.069111	0.000000	-0.000025	0.000000	0.000000	0.000000
