#ParticleID	Turn	x[m]	xp	y[m]	yp	z[m]	dE[GeV]# s	beta_x	beta_y	alpha_x	alpha_y	D_x	D_y	D_px	D_py	orbit_x	orbit_px	orbit_y	orbit_py
0.300000	11.826742	24.966615	-0.012641	-0.027692	2.618172	0.000000	-0.000010	0.000000	0.000000	0.000000	0.000000	0.000000
0.601250	11.842034	24.986937	-0.038117	-0.039768	2.618169	0.000000	-0.000010	0.000000	0.000000	0.000000	0.000000	0.000000
0.898573	11.872176	25.014128	-0.034147	-0.113027	2.618166	0.000000	-0.006430	0.000000	0.000000	0.000000	0.000000	0.000000
1.339533	12.054581	24.836364	-0.381076	0.514624	2.631624	0.000000	0.067528	0.000000	0.000000	0.000000	0.000000	0.000000
1.780493	12.549442	24.113312	-0.745416	1.118860	2.677833	0.000000	0.142256	0.000000	0.000001	0.000000	0.000000	0.000000
2.221453	13.379367	22.877870	-1.143811	1.672188	2.757320	0.000000	0.218604	0.000000	0.000001	0.000000	0.000000	0.000000
2.662413	14.582273	21.186250	-1.594464	2.149434	2.870989	0.000000	0.297441	0.000000	0.000001	0.000000	0.000000	0.000000
3.108373	16.233908	19.090609	-2.122260	2.530013	3.021997	0.000000	0.380156	0.000000	0.000001	0.000000	0.000000	0.000000
3.657433	18.351818	16.736978	-1.712243	1.781945	3.205454	0.000000	0.287118	0.000000	0.000001	0.000000	0.000000	0.000000
4.206493	19.949998	15.130716	-1.181282	1.160801	3.336351	0.000000	0.188987	0.000000	0.000001	0.000000	0.000000	0.000000
4.755553	20.915560	14.157411	-0.566881	0.622338	3.412369	0.000000	0.087505	0.000000	0.000001	0.000000	0.000000	0.000000
5.304613	21.180301	13.747738	0.087562	0.128203	3.432157	0.000000	-0.015530	0.000000	0.000002	0.000000	0.000000	0.000000
5.603185	21.165273	13.656392	0.018112	0.141820	3.430197	0.000000	-0.006563	0.000000	0.000002	0.000000	0.000000	0.000000
5.936519	21.158450	13.570145	0.002357	0.116920	3.428009	0.000000	-0.006563	0.000000	0.000002	0.000000	0.000000	0.000000
6.269852	21.162130	13.500498	-0.013397	0.092021	3.425822	0.000000	-0.006563	0.000000	0.000002	0.000000	0.000000	0.000000
6.604435	21.176385	13.447283	-0.029210	0.067028	3.423626	0.000000	-0.006563	0.000000	0.000002	0.000000	0.000000	0.000000
6.901758	21.197933	13.414029	-0.098648	0.079866	3.421675	0.000000	0.002377	0.000000	0.000002	0.000000	0.000000	0.000000
7.450818	20.944927	13.586902	0.556719	-0.396578	3.394779	0.000000	-0.100203	0.000000	0.000002	0.000000	0.000000	0.000000
7.999878	19.989684	14.295316	1.172762	-0.901269	3.311966	0.000000	-0.201006	0.000000	0.000002	0.000000	0.000000	0.000000
8.548938	18.399677	15.589730	1.705967	-1.470155	3.174705	0.000000	-0.298243	0.000000	0.000002	-0.000000	0.000000	0.000000
9.097998	16.287217	17.562340	2.118671	-2.143757	2.985431	0.000000	-0.390191	0.000000	0.000002	-0.000000	0.000000	0.000000
9.543958	14.639018	19.320086	1.590315	-1.781073	2.829727	0.000000	-0.308486	0.000000	0.000002	-0.000000	0.000000	0.000000
9.984918	13.440087	20.700984	1.138911	-1.338581	2.710944	0.000000	-0.230778	0.000000	0.000002	0.000000	0.000000	0.000000
10.425878	12.614895	21.663190	0.739541	-0.835185	2.625815	0.000000	-0.155698	0.000000	0.000002	0.000000	0.000000	0.000000
10.866838	12.125742	22.162924	0.373959	-0.293789	2.573370	0.000000	-0.082392	0.000000	0.000002	0.000000	0.000000	0.000000
11.309048	11.950142	22.176933	0.054662	0.206531	2.552994	0.000000	-0.016285	0.000000	0.000002	0.000000	0.000000	0.000000
11.606371	11.925057	22.058277	0.029707	0.192552	2.548152	0.000000	-0.016285	0.000000	0.000002	0.000000	0.000000	0.000000
12.086371	11.915876	21.884259	-0.010580	0.169985	2.540335	0.000000	-0.016285	0.000000	0.000002	0.000000	0.000000	0.000000
12.566371	11.945371	21.731906	-0.050867	0.147417	2.532518	0.000000	-0.016285	0.000000	0.000002	0.000000	0.000000	0.000000
13.046371	12.013540	21.601218	-0.091154	0.124850	2.524702	0.000000	-0.016285	0.000000	0.000002	0.000000	0.000000	0.000000
13.526371	12.120386	21.492194	-0.131441	0.102283	2.516885	0.000000	-0.016285	0.000000	0.000003	0.000000	0.000000	0.000000
14.007621	12.266336	21.404636	-0.171832	0.079657	2.509048	0.000000	-0.016285	0.000000	0.000003	0.000000	0.000000	0.000000
14.304943	12.375935	21.361424	-0.166438	0.013295	2.504206	0.000000	-0.022425	0.000000	0.000003	0.000000	0.000000	0.000000
14.745903	12.681399	21.115876	-0.528915	0.541435	2.509949	0.000000	0.048496	0.000000	0.000003	0.000000	0.000000	0.000000
15.186863	13.315945	20.413675	-0.915556	1.044941	2.547056	0.000000	0.119969	0.000000	0.000003	0.000000	0.000000	0.000000
15.627823	14.308565	19.286771	-1.344026	1.500903	2.615952	0.000000	0.192809	0.000000	0.000003	0.000000	0.000000	0.000000
16.068783	15.704608	17.786438	-1.833901	1.888575	2.717420	0.000000	0.267845	0.000000	0.000003	0.000000	0.000000	0.000000
16.514743	17.591510	15.959436	-2.412320	2.191067	2.854312	0.000000	0.346394	0.000000	0.000003	0.000001	0.000000	0.000000
17.063803	20.014771	13.919317	-1.975025	1.546524	3.020773	0.000000	0.259064	0.000000	0.000004	0.000000	0.000000	0.000000
17.612863	21.877917	12.522702	-1.398225	1.012137	3.137951	0.000000	0.167140	0.000000	0.000004	0.000000	0.000000	0.000000
18.161923	23.049345	11.670115	-0.722661	0.549841	3.203768	0.000000	0.072251	0.000000	0.000004	0.000000	0.000000	0.000000
18.710983	23.446311	11.300827	0.003949	0.126710	3.217055	0.000000	-0.023920	0.000000	0.000004	0.000000	0.000000	0.000000
19.009556	23.484348	11.215613	-0.070086	0.129171	3.212423	0.000000	-0.015515	0.000000	0.000004	0.000000	0.000000	0.000000
19.342889	23.535826	11.139571	-0.084350	0.098955	3.207251	0.000000	-0.015515	0.000000	0.000004	0.000000	0.000000	0.000000
19.676223	23.596814	11.083673	-0.098613	0.068738	3.202080	0.000000	-0.015515	0.000000	0.000004	0.000000	0.000000	0.000000
20.010806	23.667887	11.047687	-0.230194	0.093146	3.196908	0.000000	0.000324	0.000000	0.000004	0.000000	0.000000	0.000000
20.308129	23.808703	11.000370	-0.305628	0.094740	3.197005	0.000000	0.008677	0.000000	0.000004	0.000000	0.000000	0.000000
20.857189	23.733687	11.118799	0.441446	-0.311709	3.175550	0.000000	-0.086711	0.000000	0.000004	-0.000000	0.000000	0.000000
21.406249	22.850631	11.693059	1.157338	-0.740361	3.102068	0.000000	-0.180562	0.000000	0.000004	-0.000000	0.000000	0.000000
21.955309	21.221910	12.764052	1.791482	-1.221746	2.977860	0.000000	-0.271210	0.000000	0.000004	-0.000000	0.000000	0.000000
22.504369	18.962569	14.408062	2.299085	-1.790155	2.805130	0.000000	-0.357048	0.000000	0.000004	-0.000000	0.000000	0.000000
22.950329	17.182122	15.883952	1.707400	-1.505350	2.663194	0.000000	-0.279840	0.000000	0.000004	-0.000000	0.000000	0.000000
23.391289	15.905615	17.060615	1.198418	-1.152909	2.556118	0.000000	-0.206275	0.000000	0.000004	-0.000000	0.000000	0.000000
23.832249	15.052240	17.902047	0.744189	-0.748012	2.480932	0.000000	-0.135058	0.000000	0.000004	-0.000000	0.000000	0.000000
24.273209	14.583009	18.369964	0.323960	-0.309082	2.436782	0.000000	-0.065380	0.000000	0.000003	-0.000000	0.000000	0.000000
24.715418	14.476599	18.442829	-0.046055	0.098617	2.423160	0.000000	-0.002389	0.000000	0.000003	0.000000	0.000000	0.000000
25.012741	14.510105	18.389026	-0.066637	0.082339	2.422450	0.000000	-0.002389	0.000000	0.000003	0.000000	0.000000	0.000000
25.346075	14.562221	18.340216	-0.089712	0.064090	2.421654	0.000000	-0.002389	0.000000	0.000003	0.000000	0.000000	0.000000
25.679408	14.629721	18.303573	-0.112786	0.045840	2.420857	0.000000	-0.002389	0.000000	0.000003	0.000000	0.000000	0.000000
26.013991	14.712644	18.279398	-0.016589	-0.120769	2.420034	0.000000	-0.022022	0.000000	0.000003	-0.000000	0.000000	0.000000
26.311314	14.728519	18.356120	-0.000685	-0.182285	2.413486	0.000000	-0.027940	0.000000	0.000003	-0.000000	0.000000	0.000000
26.752274	14.910606	18.317765	-0.413815	0.268934	2.416276	0.000000	0.040604	0.000000	0.000003	0.000000	0.000000	0.000000
27.193234	15.463968	17.885368	-0.845850	0.707917	2.449363	0.000000	0.109611	0.000000	0.000004	0.000000	0.000000	0.000000
27.634194	16.413887	17.078601	-1.316529	1.114690	2.513127	0.000000	0.179866	0.000000	0.000004	0.000000	0.000000	0.000000
28.075154	17.803762	15.934173	-1.847358	1.470745	2.608292	0.000000	0.252170	0.000000	0.000004	0.000000	0.000000	0.000000
28.521114	19.721244	14.486917	-2.467545	1.760797	2.737545	0.000000	0.327790	0.000000	0.000004	0.000000	0.000000	0.000000
29.070174	22.158373	12.874267	-1.944910	1.193651	2.894857	0.000000	0.244392	0.000000	0.000004	0.000000	0.000000	0.000000
29.619234	23.942291	11.834348	-1.284896	0.711526	3.005120	0.000000	0.156659	0.000000	0.000004	0.000000	0.000000	0.000000
30.168294	24.946989	11.293091	-0.534124	0.280082	3.066377	0.000000	0.066147	0.000000	0.000004	0.000000	0.000000	0.000000
30.717354	25.101502	11.211942	0.254376	-0.131413	3.077542	0.000000	-0.025537	0.000000	0.000004	-0.000000	0.000000	0.000000
31.015927	24.992443	11.280956	0.176475	-0.129027	3.072318	0.000000	-0.017497	0.000000	0.000004	-0.000000	0.000000	0.000000
31.349260	24.879378	11.376987	0.162722	-0.159067	3.066486	0.000000	-0.017497	0.000000	0.000004	-0.000000	0.000000	0.000000
31.682593	24.775481	11.493046	0.148969	-0.189107	3.060654	0.000000	-0.017497	0.000000	0.000004	-0.000000	0.000000	0.000000
32.017177	24.680414	11.629679	0.135165	-0.219260	3.054800	0.000000	-0.017497	0.000000	0.000004	-0.000000	0.000000	0.000000
32.314499	24.603686	11.768028	0.058615	-0.215309	3.049598	0.000000	-0.009529	0.000000	0.000004	-0.000000	0.000000	0.000000
32.863559	24.117832	12.243776	0.821031	-0.656284	3.019484	0.000000	-0.100001	0.000000	0.000004	-0.000000	0.000000	0.000000
33.412619	22.821799	13.226443	1.525453	-1.144005	2.940110	0.000000	-0.188700	0.000000	0.000004	-0.000000	0.000000	0.000000
33.961679	20.807133	14.786020	2.122125	-1.713211	2.812884	0.000000	-0.274051	0.000000	0.000004	-0.000000	0.000000	0.000000
34.510739	18.216141	17.033594	2.568901	-2.404446	2.640062	0.000000	-0.354542	0.000000	0.000003	-0.000001	0.000000	0.000000
34.956699	16.201639	19.043912	1.964510	-2.084575	2.498292	0.000000	-0.281614	0.000000	0.000003	-0.000000	0.000000	0.000000
35.397659	14.699525	20.706123	1.454877	-1.670606	2.389493	0.000000	-0.212322	0.000000	0.000003	-0.000000	0.000000	0.000000
35.838619	13.615967	21.968205	1.011714	-1.180626	2.310687	0.000000	-0.145448	0.000000	0.000003	-0.000000	0.000000	0.000000
36.279579	12.901462	22.772735	0.614773	-0.636928	2.260977	0.000000	-0.080230	0.000000	0.000003	-0.000000	0.000000	0.000000
36.721789	12.522675	23.083410	0.276522	-0.120911	2.239770	0.000000	-0.021419	0.000000	0.000003	-0.000000	0.000000	0.000000
37.019112	12.365842	23.159194	0.250963	-0.133979	2.233402	0.000000	-0.021419	0.000000	0.000003	-0.000000	0.000000	0.000000
37.352445	12.208084	23.253397	0.222310	-0.148631	2.226263	0.000000	-0.021419	0.000000	0.000002	-0.000000	0.000000	0.000000
37.685779	12.069429	23.357368	0.193656	-0.163282	2.219123	0.000000	-0.021419	0.000000	0.000002	-0.000000	0.000000	0.000000
38.020362	11.949464	23.471552	0.164895	-0.177989	2.211957	0.000000	-0.021419	0.000000	0.000002	-0.000000	0.000000	0.000000
38.317684	11.859009	23.581277	0.168418	-0.248884	2.205589	0.000000	-0.026827	0.000000	0.000002	-0.000000	0.000000	0.000000
38.758644	11.861726	23.539597	-0.174602	0.343048	2.207686	0.000000	0.036349	0.000000	0.000002	-0.000000	0.000000	0.000000
39.199604	12.169320	22.980794	-0.525600	0.919372	2.237706	0.000000	0.099939	0.000000	0.000002	-0.000000	0.000000	0.000000
39.640564	12.795845	21.930294	-0.900610	1.453865	2.295991	0.000000	0.164667	0.000000	0.000002	-0.000000	0.000000	0.000000
40.081524	13.769923	20.435894	-1.316767	1.922208	2.383204	0.000000	0.231270	0.000000	0.000002	0.000000	0.000000	0.000000
40.527484	15.153626	18.543021	-1.796907	2.304372	2.501811	0.000000	0.300913	0.000000	0.000002	0.000000	0.000000	0.000000
41.076544	16.919581	16.415985	-1.400377	1.592454	2.646501	0.000000	0.225358	0.000000	0.000002	-0.000000	0.000000	0.000000
41.625604	18.192871	15.004221	-0.904932	0.993962	2.748547	0.000000	0.145805	0.000000	0.000002	-0.000000	0.000000	0.000000
42.174664	18.883558	14.207171	-0.345566	0.466269	2.806138	0.000000	0.063666	0.000000	0.000002	-0.000000	0.000000	0.000000
42.723724	18.942855	13.968064	0.238208	-0.028213	2.818253	0.000000	-0.019602	0.000000	0.000002	-0.000000	0.000000	0.000000
43.022297	18.835038	13.969501	0.172392	-0.013095	2.814599	0.000000	-0.012238	0.000000	0.000002	-0.000000	0.000000	0.000000
43.502297	18.682138	13.998568	0.146150	-0.047461	2.808725	0.000000	-0.012238	0.000000	0.000002	-0.000000	0.000000	0.000000
43.982297	18.554430	14.060627	0.119908	-0.081828	2.802851	0.000000	-0.012238	0.000000	0.000002	-0.000000	0.000000	0.000000
44.462297	18.451915	14.155677	0.093666	-0.116194	2.796976	0.000000	-0.012238	0.000000	0.000002	-0.000000	0.000000	0.000000
44.942297	18.374591	14.283720	0.067425	-0.150561	2.791102	0.000000	-0.012238	0.000000	0.000001	-0.000000	0.000000	0.000000
45.423547	18.322584	14.445038	-0.049666	-0.113447	2.785230	0.000000	0.001561	0.000000	0.000001	-0.000000	0.000000	0.000000
45.720870	18.356954	14.518697	-0.113896	-0.096361	2.785694	0.000000	0.008840	0.000000	0.000001	-0.000000	0.000000	0.000000
46.269930	18.172924	14.905379	0.447084	-0.612058	2.767977	0.000000	-0.073282	0.000000	0.000001	-0.000000	0.000000	0.000000
46.818990	17.386645	15.878832	0.976484	-1.171351	2.705460	0.000000	-0.154105	0.000000	0.000001	-0.000000	0.000000	0.000000
47.368050	16.053657	17.508392	1.436910	-1.814077	2.599253	0.000000	-0.232194	0.000000	0.000001	-0.000000	0.000000	0.000000
47.917110	14.268114	19.910130	1.795839	-2.586015	2.451240	0.000000	-0.306165	0.000000	0.000001	-0.000000	0.000000	0.000000
48.363070	12.878511	22.045567	1.331181	-2.182259	2.329994	0.000000	-0.237868	0.000000	0.000001	-0.000000	0.000000	0.000000
48.804030	11.884703	23.755388	0.931108	-1.680482	2.239563	0.000000	-0.172678	0.000000	0.000000	-0.000000	0.000000	0.000000
49.244990	11.223705	24.987146	0.573575	-1.102245	2.177418	0.000000	-0.109454	0.000000	0.000000	-0.000000	0.000000	0.000000
49.685950	10.865320	25.684799	0.242246	-0.473856	2.142851	0.000000	-0.047477	0.000000	0.000000	-0.000000	0.000000	0.000000
50.128160	10.793303	25.816320	-0.051663	0.112734	2.135480	0.000000	0.008723	0.000000	0.000000	-0.000000	0.000000	0.000000
50.425482	10.832236	25.752751	-0.079283	0.101071	2.138073	0.000000	0.008723	0.000000	-0.000000	-0.000000	0.000000	0.000000
50.758816	10.895414	25.689729	-0.110249	0.087995	2.140981	0.000000	0.008723	0.000000	-0.000000	-0.000000	0.000000	0.000000
51.092149	10.979235	25.635424	-0.141215	0.074919	2.143889	0.000000	0.008723	0.000000	-0.000000	-0.000000	0.000000	0.000000
51.426732	11.083906	25.590201	-0.082377	-0.145806	2.146785	0.000000	-0.008693	0.000000	-0.000000	-0.000000	0.000000	0.000000
51.724055	11.140920	25.680432	-0.082062	-0.220648	2.144201	0.000000	-0.013951	0.000000	-0.000000	-0.000000	0.000000	0.000000
52.165015	11.358729	25.589347	-0.413754	0.426422	2.151637	0.000000	0.047711	0.000000	-0.000000	-0.000000	0.000000	0.000000
52.605975	11.876263	24.934008	-0.764350	1.054089	2.186358	0.000000	0.109916	0.000000	-0.000001	-0.000000	0.000000	0.000000
53.046935	12.717165	23.744230	-1.149866	1.633796	2.248758	0.000000	0.173374	0.000000	-0.000001	-0.000000	0.000000	0.000000
53.487895	13.919855	22.074149	-1.587917	2.139167	2.339550	0.000000	0.238806	0.000000	-0.000001	-0.000000	0.000000	0.000000
53.933855	15.559892	19.974779	-2.102750	2.548543	2.461270	0.000000	0.307357	0.000000	-0.000001	-0.000000	0.000000	0.000000
54.482915	17.671347	17.612529	-1.720066	1.779206	2.609847	0.000000	0.233052	0.000000	-0.000001	-0.000000	0.000000	0.000000
55.031975	19.292958	16.020972	-1.215884	1.136599	2.716430	0.000000	0.154614	0.000000	-0.000001	-0.000000	0.000000	0.000000
55.581035	20.310185	15.086744	-0.625819	0.574949	2.779128	0.000000	0.073433	0.000000	-0.000002	-0.000000	0.000000	0.000000
56.130095	20.651175	14.743303	0.008451	0.054251	2.796829	0.000000	-0.009051	0.000000	-0.000002	-0.000000	0.000000	0.000000
56.428668	20.682675	14.694002	-0.059995	0.072347	2.796309	0.000000	-0.001743	0.000000	-0.000002	-0.000000	0.000000	0.000000
56.762001	20.728063	14.653372	-0.076169	0.049544	2.795728	0.000000	-0.001743	0.000000	-0.000002	-0.000000	0.000000	0.000000
57.095334	20.784235	14.627944	-0.092344	0.026740	2.795147	0.000000	-0.001743	0.000000	-0.000002	-0.000000	0.000000	0.000000
57.429918	20.851460	14.617709	-0.108579	0.003851	2.794563	0.000000	-0.001743	0.000000	-0.000002	-0.000000	0.000000	0.000000
57.727240	20.920316	14.621466	-0.177668	0.021714	2.794045	0.000000	0.005557	0.000000	-0.000002	-0.000000	0.000000	0.000000
58.276300	20.758463	14.878452	0.470704	-0.492524	2.774457	0.000000	-0.076805	0.000000	-0.000002	-0.000000	0.000000	0.000000
58.825360	19.898744	15.715969	1.085828	-1.041844	2.709954	0.000000	-0.157806	0.000000	-0.000002	-0.000000	0.000000	0.000000
59.374420	18.401885	17.193671	1.624255	-1.665372	2.601681	0.000000	-0.236007	0.000000	-0.000002	0.000000	0.000000	0.000000
59.923480	16.373616	19.416811	2.047953	-2.407521	2.451559	0.000000	-0.310022	0.000000	-0.000002	0.000000	0.000000	0.000000
60.369440	14.786032	21.392817	1.524579	-2.004679	2.328592	0.000000	-0.241739	0.000000	-0.000002	0.000000	0.000000	0.000000
60.810400	13.644024	22.949454	1.075069	-1.511997	2.236442	0.000000	-0.176607	0.000000	-0.000002	-0.000000	0.000000	0.000000
61.251360	12.875372	24.039474	0.674676	-0.950520	2.172543	0.000000	-0.113487	0.000000	-0.000002	-0.000000	0.000000	0.000000
61.692320	12.444959	24.613281	0.305108	-0.345796	2.136167	0.000000	-0.051659	0.000000	-0.000002	-0.000000	0.000000	0.000000
62.134530	12.333172	24.644232	-0.020378	0.214172	2.126904	0.000000	0.004365	0.000000	-0.000002	-0.000000	0.000000	0.000000
62.431853	12.352460	24.520627	-0.044495	0.201554	2.128202	0.000000	0.004365	0.000000	-0.000002	-0.000000	0.000000	0.000000
62.765186	12.391137	24.390973	-0.071534	0.187408	2.129657	0.000000	0.004365	0.000000	-0.000002	-0.000000	0.000000	0.000000
63.098520	12.447839	24.270749	-0.098573	0.173262	2.131112	0.000000	0.004365	0.000000	-0.000002	-0.000000	0.000000	0.000000
63.433103	12.522881	24.159559	-0.125713	0.159062	2.132573	0.000000	0.004365	0.000000	-0.000002	-0.000000	0.000000	0.000000
63.730426	12.604807	24.068725	-0.118919	0.087419	2.133871	0.000000	-0.000868	0.000000	-0.000003	-0.000000	0.000000	0.000000
64.171386	12.870154	23.726546	-0.485113	0.685613	2.147029	0.000000	0.060602	0.000000	-0.000003	-0.000000	0.000000	0.000000
64.612346	13.466970	22.868602	-0.873470	1.252612	2.187418	0.000000	0.122762	0.000000	-0.000003	-0.000000	0.000000	0.000000
65.053306	14.422522	21.533927	-1.301733	1.762618	2.255500	0.000000	0.186320	0.000000	-0.000003	-0.000000	0.000000	0.000000
65.494266	15.780467	19.783248	-1.789469	2.192427	2.352049	0.000000	0.252000	0.000000	-0.000003	-0.000000	0.000000	0.000000
65.940226	17.626013	17.671439	-2.363655	2.523238	2.479738	0.000000	0.320952	0.000000	-0.000003	-0.000001	0.000000	0.000000
66.489286	19.991675	15.308919	-1.919410	1.805006	2.635594	0.000000	0.245931	0.000000	-0.000004	-0.000000	0.000000	0.000000
67.038346	21.791715	13.660298	-1.339587	1.215341	2.748999	0.000000	0.166548	0.000000	-0.000004	-0.000000	0.000000	0.000000
67.587406	22.898987	12.608150	-0.665143	0.712242	2.817941	0.000000	0.084211	0.000000	-0.000004	-0.000000	0.000000	0.000000
68.136466	23.235277	12.077532	0.056284	0.259874	2.841198	0.000000	0.000380	0.000000	-0.000004	-0.000000	0.000000	0.000000
68.435038	23.241758	11.911513	-0.017278	0.264611	2.843528	0.000000	0.007803	0.000000	-0.000004	-0.000000	0.000000	0.000000
68.768372	23.258058	11.745087	-0.031624	0.234667	2.846129	0.000000	0.007803	0.000000	-0.000004	-0.000000	0.000000	0.000000
69.101705	23.283923	11.598624	-0.045970	0.204724	2.848730	0.000000	0.007803	0.000000	-0.000004	-0.000000	0.000000	0.000000
69.436288	23.319503	11.471686	-0.060370	0.174668	2.851341	0.000000	0.007803	0.000000	-0.000004	-0.000000	0.000000	0.000000
69.733611	23.359207	11.375761	-0.134202	0.177683	2.853661	0.000000	0.015260	0.000000	-0.000004	-0.000000	0.000000	0.000000
70.282671	23.105403	11.408401	0.593718	-0.237481	2.838855	0.000000	-0.069112	0.000000	-0.000004	0.000000	0.000000	0.000000
