#ParticleID	Turn	x[m]	xp	y[m]	yp	z[m]	dE[GeV]# s	beta_x	beta_y	alpha_x	alpha_y	D_x	D_y	D_px	D_py	orbit_x	orbit_px	orbit_y	orbit_py
0.300000	11.824034	24.977144	-0.012270	-0.027634	2.618119	0.000000	0.000010	0.000000	0.000000	0.000001	0.000000	0.000000
0.601250	11.839103	24.997429	-0.037752	-0.039704	2.618121	0.000000	0.000010	0.000000	0.000000	0.000001	0.000000	0.000000
0.898573	11.869029	25.024581	-0.033795	-0.112984	2.618124	0.000000	-0.006410	0.000000	0.000000	0.000001	0.000000	0.000000
1.339533	12.051089	24.846657	-0.380643	0.514942	2.631591	0.000000	0.067547	0.000000	0.000001	0.000001	0.000000	0.000000
1.780493	12.545525	24.123207	-0.744882	1.119439	2.677808	0.000000	0.142274	0.000000	0.000001	0.000001	0.000000	0.000000
2.221453	13.374926	22.887148	-1.143152	1.673002	2.757302	0.000000	0.218621	0.000000	0.000001	0.000001	0.000000	0.000000
2.662413	14.577185	21.194721	-1.593650	2.150445	2.870979	0.000000	0.297459	0.000000	0.000001	0.000001	0.000000	0.000000
3.108373	16.228011	19.098106	-2.121252	2.531175	3.021994	0.000000	0.380173	0.000000	0.000002	0.000001	0.000000	0.000000
3.657433	18.344889	16.743365	-1.711383	1.782818	3.205460	0.000000	0.287135	0.000000	0.000002	0.000001	0.000000	0.000000
4.206493	19.942234	15.136273	-1.180630	1.161446	3.336367	0.000000	0.189004	0.000000	0.000002	0.000001	0.000000	0.000000
4.755553	20.907217	14.162363	-0.566484	0.622801	3.412393	0.000000	0.087521	0.000000	0.000003	0.000000	0.000000	0.000000
5.304613	21.171676	13.752265	0.087676	0.128518	3.432190	0.000000	-0.015515	0.000000	0.000003	0.000000	0.000000	0.000000
5.603185	21.156568	13.660722	0.018243	0.142151	3.430235	0.000000	-0.006548	0.000000	0.000003	0.000000	0.000000	0.000000
5.936519	21.149660	13.574253	0.002482	0.117257	3.428052	0.000000	-0.006548	0.000000	0.000003	0.000000	0.000000	0.000000
6.269852	21.153259	13.504380	-0.013279	0.092363	3.425869	0.000000	-0.006548	0.000000	0.000003	0.000000	0.000000	0.000000
6.604435	21.167437	13.450934	-0.029099	0.067376	3.423678	0.000000	-0.006548	0.000000	0.000003	0.000000	0.000000	0.000000
6.901758	21.188921	13.417471	-0.098518	0.080228	3.421731	0.000000	0.002392	0.000000	0.000003	0.000000	0.000000	0.000000
7.450818	20.935939	13.589999	0.556546	-0.396307	3.394843	0.000000	-0.100190	0.000000	0.000004	0.000000	0.000000	0.000000
7.999878	19.981047	14.298157	1.172298	-0.901070	3.312037	0.000000	-0.200995	0.000000	0.000004	0.000000	0.000000	0.000000
8.548938	18.391695	15.592384	1.705245	-1.470014	3.174781	0.000000	-0.298235	0.000000	0.000004	0.000000	0.000000	0.000000
9.097998	16.280147	17.564867	2.117742	-2.143664	2.985511	0.000000	-0.390185	0.000000	0.000004	-0.000000	0.000000	0.000000
9.543958	14.632682	19.322488	1.589592	-1.780886	2.829811	0.000000	-0.308477	0.000000	0.000004	-0.000000	0.000000	0.000000
9.984918	13.434311	20.703182	1.138360	-1.338310	2.711031	0.000000	-0.230767	0.000000	0.000004	0.000000	0.000000	0.000000
10.425878	12.609539	21.665116	0.739136	-0.834842	2.625907	0.000000	-0.155685	0.000000	0.000004	0.000000	0.000000	0.000000
10.866838	12.120685	22.164522	0.373682	-0.293390	2.573469	0.000000	-0.082377	0.000000	0.000004	0.000000	0.000000	0.000000
11.309048	11.945278	22.178159	0.054488	0.206967	2.553099	0.000000	-0.016267	0.000000	0.000004	0.000000	0.000000	0.000000
11.606371	11.920300	22.059244	0.029523	0.192986	2.548262	0.000000	-0.016267	0.000000	0.000004	0.000000	0.000000	0.000000
12.086371	11.911303	21.884811	-0.010779	0.170416	2.540454	0.000000	-0.016267	0.000000	0.000004	0.000000	0.000000	0.000000
12.566371	11.940996	21.732045	-0.051082	0.147846	2.532646	0.000000	-0.016267	0.000000	0.000004	0.000000	0.000000	0.000000
13.046371	12.009380	21.600946	-0.091384	0.125276	2.524837	0.000000	-0.016267	0.000000	0.000005	0.000000	0.000000	0.000000
13.526371	12.116454	21.491515	-0.131687	0.102706	2.517029	0.000000	-0.016267	0.000000	0.000005	0.000000	0.000000	0.000000
14.007621	12.262648	21.403550	-0.172094	0.080077	2.509200	0.000000	-0.016267	0.000000	0.000005	0.000000	0.000000	0.000000
14.304943	12.372406	21.360089	-0.166719	0.013718	2.504363	0.000000	-0.022408	0.000000	0.000005	0.000000	0.000000	0.000000
14.745903	12.678086	21.114186	-0.529124	0.541814	2.510114	0.000000	0.048517	0.000000	0.000005	0.000000	0.000000	0.000000
15.186863	13.312789	20.411678	-0.915704	1.045257	2.547232	0.000000	0.119995	0.000000	0.000005	0.000001	0.000000	0.000000
15.627823	14.305515	19.284529	-1.344119	1.501142	2.616140	0.000000	0.192840	0.000000	0.000006	0.000001	0.000000	0.000000
16.068783	15.701617	17.784023	-1.833943	1.888726	2.717623	0.000000	0.267881	0.000000	0.000006	0.000001	0.000000	0.000000
16.514743	17.588534	15.956929	-2.412313	2.191122	2.854531	0.000000	0.346435	0.000000	0.000007	0.000001	0.000000	0.000000
17.063803	20.011858	13.916725	-1.975148	1.546623	3.021013	0.000000	0.259098	0.000000	0.000007	0.000001	0.000000	0.000000
17.612863	21.875207	12.519975	-1.398469	1.012286	3.138207	0.000000	0.167165	0.000000	0.000008	0.000001	0.000000	0.000000
18.161923	23.046962	11.667192	-0.723008	0.550052	3.204035	0.000000	0.072268	0.000000	0.000008	0.000000	0.000000	0.000000
18.710983	23.444356	11.297632	0.003521	0.126997	3.217330	0.000000	-0.023912	0.000000	0.000008	0.000000	0.000000	0.000000
19.009556	23.482644	11.212255	-0.070508	0.129439	3.212700	0.000000	-0.015506	0.000000	0.000008	0.000000	0.000000	0.000000
19.342889	23.534405	11.136038	-0.084773	0.099211	3.207531	0.000000	-0.015506	0.000000	0.000008	0.000000	0.000000	0.000000
19.676223	23.595676	11.079973	-0.099039	0.068984	3.202362	0.000000	-0.015506	0.000000	0.000008	0.000000	0.000000	0.000000
20.010806	23.667033	11.043826	-0.230617	0.093361	3.197194	0.000000	0.000335	0.000000	0.000008	0.000000	0.000000	0.000000
20.308129	23.808103	10.996384	-0.306050	0.094934	3.197294	0.000000	0.008688	0.000000	0.000008	0.000000	0.000000	0.000000
20.857189	23.733559	11.114539	0.441013	-0.311399	3.175843	0.000000	-0.086710	0.000000	0.000008	-0.000000	0.000000	0.000000
21.406249	22.850970	11.688385	1.156925	-0.739912	3.102358	0.000000	-0.180570	0.000000	0.000008	-0.000000	0.000000	0.000000
21.955309	21.222678	12.758795	1.791118	-1.221127	2.978143	0.000000	-0.271228	0.000000	0.000008	-0.000001	0.000000	0.000000
22.504369	18.963698	14.402012	2.298795	-1.789321	2.805401	0.000000	-0.357074	0.000000	0.000007	-0.000001	0.000000	0.000000
22.950329	17.183506	15.877217	1.707114	-1.504654	2.663455	0.000000	-0.279860	0.000000	0.000007	-0.000001	0.000000	0.000000
23.391289	15.907254	17.053340	1.198124	-1.152383	2.556372	0.000000	-0.206288	0.000000	0.000007	-0.000000	0.000000	0.000000
23.832249	15.054148	17.894392	0.743872	-0.747679	2.481182	0.000000	-0.135065	0.000000	0.000007	-0.000000	0.000000	0.000000
24.273209	14.585212	18.362106	0.323606	-0.308957	2.437030	0.000000	-0.065380	0.000000	0.000007	-0.000000	0.000000	0.000000
24.715418	14.479138	18.434955	-0.046458	0.098549	2.423410	0.000000	-0.002383	0.000000	0.000007	0.000000	0.000000	0.000000
25.012741	14.512882	18.381196	-0.067037	0.082264	2.422702	0.000000	-0.002383	0.000000	0.000007	0.000000	0.000000	0.000000
25.346075	14.565264	18.332439	-0.090108	0.064007	2.421907	0.000000	-0.002383	0.000000	0.000007	0.000000	0.000000	0.000000
25.679408	14.633027	18.295853	-0.113180	0.045749	2.421113	0.000000	-0.002383	0.000000	0.000007	0.000000	0.000000	0.000000
26.013991	14.716213	18.271742	-0.016950	-0.120806	2.420291	0.000000	-0.022018	0.000000	0.000007	-0.000000	0.000000	0.000000
26.311314	14.732301	18.348487	-0.001034	-0.182308	2.413745	0.000000	-0.027937	0.000000	0.000007	-0.000000	0.000000	0.000000
26.752274	14.914737	18.310244	-0.414262	0.268705	2.416537	0.000000	0.040614	0.000000	0.000007	0.000000	0.000000	0.000000
27.193234	15.468545	17.878136	-0.846416	0.707492	2.449631	0.000000	0.109628	0.000000	0.000007	0.000000	0.000000	0.000000
27.634194	16.419025	17.071824	-1.317240	1.114089	2.513403	0.000000	0.179890	0.000000	0.000007	0.000000	0.000000	0.000000
28.075154	17.809603	15.927993	-1.848246	1.469995	2.608580	0.000000	0.252202	0.000000	0.000007	0.000001	0.000000	0.000000
28.521114	19.727972	14.481460	-2.468653	1.759932	2.737849	0.000000	0.327829	0.000000	0.000008	0.000001	0.000000	0.000000
29.070174	22.166232	12.869643	-1.945848	1.192990	2.895180	0.000000	0.244421	0.000000	0.000008	0.000001	0.000000	0.000000
29.619234	23.951055	11.830359	-1.285597	0.711023	3.005455	0.000000	0.156677	0.000000	0.000008	0.000000	0.000000	0.000000
30.168294	24.956370	11.289584	-0.534539	0.279701	3.066719	0.000000	0.066155	0.000000	0.000008	0.000000	0.000000	0.000000
30.717354	25.111167	11.208799	0.254277	-0.131699	3.077885	0.000000	-0.025541	0.000000	0.000008	-0.000000	0.000000	0.000000
31.015927	25.002180	11.277992	0.176357	-0.129331	3.072660	0.000000	-0.017500	0.000000	0.000008	-0.000000	0.000000	0.000000
31.349260	24.889190	11.374230	0.162610	-0.159382	3.066827	0.000000	-0.017500	0.000000	0.000008	-0.000000	0.000000	0.000000
31.682593	24.785366	11.490501	0.148864	-0.189432	3.060994	0.000000	-0.017500	0.000000	0.000008	-0.000000	0.000000	0.000000
32.017177	24.690368	11.627355	0.135065	-0.219595	3.055139	0.000000	-0.017500	0.000000	0.000008	-0.000000	0.000000	0.000000
32.314499	24.613698	11.765905	0.058497	-0.215659	3.049936	0.000000	-0.009531	0.000000	0.000008	-0.000000	0.000000	0.000000
32.863559	24.127789	12.242014	0.821246	-0.656594	3.019818	0.000000	-0.100015	0.000000	0.000008	-0.000000	0.000000	0.000000
33.412619	22.831343	13.225009	1.525987	-1.144297	2.940434	0.000000	-0.188724	0.000000	0.000008	-0.000001	0.000000	0.000000
33.961679	20.815932	14.784906	2.122939	-1.713505	2.813192	0.000000	-0.274086	0.000000	0.000007	-0.000001	0.000000	0.000000
34.510739	18.223917	17.032813	2.569938	-2.404762	2.640349	0.000000	-0.354586	0.000000	0.000007	-0.000001	0.000000	0.000000
34.956699	16.208595	19.043442	1.965316	-2.084952	2.498561	0.000000	-0.281651	0.000000	0.000006	-0.000001	0.000000	0.000000
35.397659	14.705856	20.706005	1.455492	-1.671026	2.389747	0.000000	-0.212352	0.000000	0.000006	-0.000001	0.000000	0.000000
35.838619	13.621831	21.968469	1.012164	-1.181069	2.310929	0.000000	-0.145471	0.000000	0.000006	-0.000001	0.000000	0.000000
36.279579	12.906993	22.773393	0.615079	-0.637375	2.261210	0.000000	-0.080248	0.000000	0.000005	-0.000001	0.000000	0.000000
36.721789	12.527993	23.084457	0.276711	-0.121341	2.239997	0.000000	-0.021431	0.000000	0.000005	-0.000000	0.000000	0.000000
37.019112	12.371044	23.160497	0.251161	-0.134411	2.233625	0.000000	-0.021431	0.000000	0.000005	-0.000000	0.000000	0.000000
37.352445	12.213151	23.254989	0.222517	-0.149063	2.226482	0.000000	-0.021431	0.000000	0.000005	-0.000000	0.000000	0.000000
37.685779	12.074355	23.359248	0.193873	-0.163715	2.219338	0.000000	-0.021431	0.000000	0.000005	-0.000000	0.000000	0.000000
38.020362	11.954241	23.473722	0.165121	-0.178423	2.212168	0.000000	-0.021431	0.000000	0.000005	-0.000000	0.000000	0.000000
38.317684	11.863650	23.583706	0.168663	-0.249324	2.205796	0.000000	-0.026840	0.000000	0.000004	-0.000000	0.000000	0.000000
38.758644	11.866196	23.542383	-0.174460	0.342679	2.207889	0.000000	0.036341	0.000000	0.000004	-0.000000	0.000000	0.000000
39.199604	12.173708	22.983868	-0.525554	0.919090	2.237907	0.000000	0.099936	0.000000	0.000004	-0.000000	0.000000	0.000000
39.640564	12.800234	21.933574	-0.900659	1.453683	2.296192	0.000000	0.164670	0.000000	0.000004	-0.000000	0.000000	0.000000
40.081524	13.774398	20.439287	-1.316912	1.922134	2.383408	0.000000	0.231279	0.000000	0.000004	0.000000	0.000000	0.000000
40.527484	15.158277	18.546430	-1.797157	2.304411	2.502020	0.000000	0.300927	0.000000	0.000004	0.000000	0.000000	0.000000
41.076544	16.924412	16.419396	-1.400455	1.592412	2.646716	0.000000	0.225365	0.000000	0.000004	0.000000	0.000000	0.000000
41.625604	18.197690	15.007722	-0.904832	0.993837	2.748763	0.000000	0.145805	0.000000	0.000004	-0.000000	0.000000	0.000000
42.174664	18.888173	14.210860	-0.345296	0.466051	2.806352	0.000000	0.063659	0.000000	0.000004	-0.000000	0.000000	0.000000
42.723724	18.947088	13.972049	0.238629	-0.028539	2.818462	0.000000	-0.019616	0.000000	0.000004	-0.000000	0.000000	0.000000
43.022297	18.839026	13.973672	0.172804	-0.013404	2.814804	0.000000	-0.012252	0.000000	0.000004	-0.000000	0.000000	0.000000
43.502297	18.685729	14.003031	0.146564	-0.047761	2.808923	0.000000	-0.012252	0.000000	0.000004	-0.000000	0.000000	0.000000
43.982297	18.557623	14.065372	0.120324	-0.082117	2.803043	0.000000	-0.012252	0.000000	0.000003	-0.000000	0.000000	0.000000
44.462297	18.454707	14.160696	0.094084	-0.116474	2.797162	0.000000	-0.012252	0.000000	0.000003	-0.000000	0.000000	0.000000
44.942297	18.376981	14.289001	0.067844	-0.150830	2.791281	0.000000	-0.012252	0.000000	0.000003	-0.000000	0.000000	0.000000
45.423547	18.324569	14.450573	-0.049254	-0.113679	2.785403	0.000000	0.001549	0.000000	0.000003	-0.000000	0.000000	0.000000
45.720870	18.358693	14.524369	-0.113485	-0.096571	2.785863	0.000000	0.008828	0.000000	0.000003	-0.000000	0.000000	0.000000
46.269930	18.174184	14.911378	0.447541	-0.612448	2.768138	0.000000	-0.073300	0.000000	0.000002	-0.000000	0.000000	0.000000
46.818990	17.387393	15.885369	0.976955	-1.171948	2.705610	0.000000	-0.154128	0.000000	0.000002	-0.000001	0.000000	0.000000
47.368050	16.053894	17.515717	1.437362	-1.814922	2.599390	0.000000	-0.232221	0.000000	0.000002	-0.000001	0.000000	0.000000
47.917110	14.267879	19.918546	1.796241	-2.587170	2.451360	0.000000	-0.306196	0.000000	0.000002	-0.000001	0.000000	0.000000
48.363070	12.877933	22.054936	1.331551	-2.183231	2.330101	0.000000	-0.237897	0.000000	0.000001	-0.000001	0.000000	0.000000
48.804030	11.883806	23.765516	0.931463	-1.681226	2.239659	0.000000	-0.172704	0.000000	0.000001	-0.000001	0.000000	0.000000
49.244990	11.222496	24.997818	0.573931	-1.102728	2.177503	0.000000	-0.109478	0.000000	0.000001	-0.000001	0.000000	0.000000
49.685950	10.863791	25.695772	0.242620	-0.474056	2.142926	0.000000	-0.047498	0.000000	0.000001	-0.000001	0.000000	0.000000
50.128160	10.791429	25.827341	-0.051258	0.112800	2.135545	0.000000	0.008703	0.000000	0.000000	-0.000001	0.000000	0.000000
50.425482	10.830123	25.763731	-0.078882	0.101141	2.138133	0.000000	0.008703	0.000000	0.000000	-0.000001	0.000000	0.000000
50.758816	10.893034	25.700660	-0.109852	0.088071	2.141034	0.000000	0.008703	0.000000	-0.000000	-0.000001	0.000000	0.000000
51.092149	10.976592	25.646303	-0.140822	0.075001	2.143935	0.000000	0.008703	0.000000	-0.000000	-0.000001	0.000000	0.000000
51.426732	11.081002	25.601024	-0.082012	-0.145807	2.146825	0.000000	-0.008713	0.000000	-0.000000	-0.000001	0.000000	0.000000
51.724055	11.137801	25.691254	-0.081711	-0.220671	2.144235	0.000000	-0.013972	0.000000	-0.000001	-0.000001	0.000000	0.000000
52.165015	11.355266	25.600063	-0.413323	0.426685	2.151662	0.000000	0.047691	0.000000	-0.000001	-0.000001	0.000000	0.000000
52.605975	11.872376	24.944369	-0.763818	1.054626	2.186375	0.000000	0.109897	0.000000	-0.000001	-0.000001	0.000000	0.000000
53.046935	12.712757	23.754005	-1.149210	1.634583	2.248767	0.000000	0.173355	0.000000	-0.000001	-0.000001	0.000000	0.000000
53.487895	13.914803	22.083133	-1.587107	2.140168	2.339550	0.000000	0.238787	0.000000	-0.000002	-0.000001	0.000000	0.000000
53.933855	15.554035	19.982791	-2.101747	2.549712	2.461262	0.000000	0.307338	0.000000	-0.000002	-0.000001	0.000000	0.000000
54.482915	17.664462	17.619429	-1.719210	1.780074	2.609830	0.000000	0.233034	0.000000	-0.000002	-0.000001	0.000000	0.000000
55.031975	19.285243	16.027056	-1.215235	1.137226	2.716403	0.000000	0.154596	0.000000	-0.000003	-0.000001	0.000000	0.000000
55.581035	20.301893	15.092251	-0.625423	0.575381	2.779092	0.000000	0.073416	0.000000	-0.000003	-0.000000	0.000000	0.000000
56.130095	20.642601	14.748428	0.008566	0.054518	2.796784	0.000000	-0.009066	0.000000	-0.000003	-0.000000	0.000000	0.000000
56.428668	20.674021	14.698958	-0.059864	0.072635	2.796259	0.000000	-0.001758	0.000000	-0.000003	-0.000000	0.000000	0.000000
56.762001	20.719325	14.658134	-0.076045	0.049838	2.795673	0.000000	-0.001758	0.000000	-0.000003	-0.000000	0.000000	0.000000
57.095334	20.775415	14.632508	-0.092227	0.027041	2.795087	0.000000	-0.001758	0.000000	-0.000003	-0.000000	0.000000	0.000000
57.429918	20.842564	14.622069	-0.108468	0.004158	2.794499	0.000000	-0.001758	0.000000	-0.000003	-0.000000	0.000000	0.000000
57.727240	20.911356	14.625642	-0.177540	0.022039	2.793976	0.000000	0.005542	0.000000	-0.000004	-0.000000	0.000000	0.000000
58.276300	20.749529	14.882336	0.470531	-0.492314	2.774380	0.000000	-0.076818	0.000000	-0.000004	-0.000000	0.000000	0.000000
58.825360	19.890161	15.719677	1.085366	-1.041733	2.709871	0.000000	-0.157816	0.000000	-0.000004	-0.000000	0.000000	0.000000
59.374420	18.393954	17.197308	1.623536	-1.665353	2.601593	0.000000	-0.236014	0.000000	-0.000004	-0.000000	0.000000	0.000000
59.923480	16.366593	19.420476	2.047028	-2.407592	2.451468	0.000000	-0.310027	0.000000	-0.000004	0.000000	0.000000	0.000000
60.369440	14.779740	21.396492	1.523859	-2.004632	2.328498	0.000000	-0.241746	0.000000	-0.000004	0.000000	0.000000	0.000000
60.810400	13.638288	22.953036	1.074520	-1.511835	2.236345	0.000000	-0.176617	0.000000	-0.000004	-0.000000	0.000000	0.000000
61.251360	12.870055	24.042864	0.674273	-0.950251	2.172441	0.000000	-0.113499	0.000000	-0.000004	-0.000000	0.000000	0.000000
61.692320	12.439941	24.616390	0.304831	-0.345431	2.136058	0.000000	-0.051673	0.000000	-0.000004	-0.000000	0.000000	0.000000
62.134530	12.328346	24.646982	-0.020551	0.214608	2.126789	0.000000	0.004348	0.000000	-0.000004	-0.000000	0.000000	0.000000
62.431853	12.347740	24.523119	-0.044678	0.201989	2.128081	0.000000	0.004348	0.000000	-0.000004	-0.000000	0.000000	0.000000
62.765186	12.386542	24.393175	-0.071728	0.187842	2.129531	0.000000	0.004348	0.000000	-0.000004	-0.000000	0.000000	0.000000
63.098520	12.443377	24.272663	-0.098777	0.173695	2.130980	0.000000	0.004348	0.000000	-0.000005	-0.000000	0.000000	0.000000
63.433103	12.518559	24.161183	-0.125928	0.159495	2.132435	0.000000	0.004348	0.000000	-0.000005	-0.000000	0.000000	0.000000
63.730426	12.600615	24.070092	-0.119153	0.087846	2.133728	0.000000	-0.000885	0.000000	-0.000005	-0.000000	0.000000	0.000000
64.171386	12.866129	23.727525	-0.485257	0.686065	2.146877	0.000000	0.060581	0.000000	-0.000005	-0.000000	0.000000	0.000000
64.612346	13.463035	22.869178	-0.873531	1.253069	2.187257	0.000000	0.122737	0.000000	-0.000005	-0.000001	0.000000	0.000000
65.053306	14.418606	21.534107	-1.301714	1.763058	2.255327	0.000000	0.186290	0.000000	-0.000005	-0.000001	0.000000	0.000000
65.494266	15.776498	19.783055	-1.789369	2.192831	2.351862	0.000000	0.251966	0.000000	-0.000006	-0.000001	0.000000	0.000000
65.940226	17.621916	17.670909	-2.363468	2.523587	2.479534	0.000000	0.320913	0.000000	-0.000006	-0.000001	0.000000	0.000000
66.489286	19.987459	15.308026	-1.919380	1.805322	2.635371	0.000000	0.245899	0.000000	-0.000007	-0.000001	0.000000	0.000000
67.038346	21.787554	13.659066	-1.339717	1.215647	2.748760	0.000000	0.166523	0.000000	-0.000007	-0.000001	0.000000	0.000000
67.587406	22.895053	12.606578	-0.665424	0.712560	2.817691	0.000000	0.084194	0.000000	-0.000007	-0.000000	0.000000	0.000000
68.136466	23.231726	12.075594	0.055872	0.260226	2.840941	0.000000	0.000371	0.000000	-0.000008	-0.000000	0.000000	0.000000
68.435038	23.238448	11.909370	-0.017684	0.264949	2.843269	0.000000	0.007794	0.000000	-0.000008	-0.000000	0.000000	0.000000
68.768372	23.255020	11.742722	-0.032032	0.234995	2.845867	0.000000	0.007794	0.000000	-0.000008	-0.000000	0.000000	0.000000
69.101705	23.281158	11.596043	-0.046381	0.205041	2.848465	0.000000	0.007794	0.000000	-0.000008	-0.000000	0.000000	0.000000
69.436288	23.317014	11.468896	-0.060783	0.174975	2.851073	0.000000	0.007794	0.000000	-0.000008	-0.000000	0.000000	0.000000
69.733611	23.356963	11.372791	-0.134613	0.177974	2.853390	0.000000	0.015250	0.000000	-0.000008	-0.000000	0.000000	0.000000
70.282671	23.103647	11.405065	0.593245	-0.237101	2.838581	0.000000	-0.069113	0.000000	-0.000008	0.000000	0.000000	0.000000
