#ParticleID	Turn	x[m]	xp	y[m]	yp	z[m]	dE[GeV]# s	beta_x	beta_y	alpha_x	alpha_y	D_x	D_y	D_px	D_py	orbit_x	orbit_px	orbit_y	orbit_py
0.300000	11.830031	24.954503	-0.013100	-0.027745	2.618243	0.000000	-0.000038	0.000000	0.000000	0.000000	0.000000	0.000000
0.601250	11.845596	24.974858	-0.038569	-0.039826	2.618231	0.000000	-0.000038	0.000000	0.000000	0.000000	0.000000	0.000000
0.898573	11.876005	25.002086	-0.034583	-0.113062	2.618220	0.000000	-0.006459	0.000000	0.000000	0.000000	0.000000	0.000000
1.339533	12.058835	24.824493	-0.381610	0.514272	2.631666	0.000000	0.067501	0.000000	0.000000	0.000000	0.000000	0.000000
1.780493	12.554219	24.101886	-0.746072	1.118206	2.677863	0.000000	0.142230	0.000000	0.000000	0.000000	0.000000	0.000000
2.221453	13.384788	22.867143	-1.144621	1.671264	2.757338	0.000000	0.218578	0.000000	0.000001	0.000000	0.000000	0.000000
2.662413	14.588489	21.176443	-1.595463	2.148280	2.870996	0.000000	0.297416	0.000000	0.000001	0.000000	0.000000	0.000000
3.108373	16.241118	19.081915	-2.123497	2.528681	3.021993	0.000000	0.380131	0.000000	0.000001	0.000000	0.000000	0.000000
3.657433	18.360295	16.729557	-1.713300	1.780947	3.205436	0.000000	0.287093	0.000000	0.000001	0.000000	0.000000	0.000000
4.206493	19.959501	15.124240	-1.182083	1.160066	3.336320	0.000000	0.188963	0.000000	0.000001	0.000000	0.000000	0.000000
4.755553	20.925776	14.151622	-0.567370	0.621814	3.412324	0.000000	0.087482	0.000000	0.000001	0.000000	0.000000	0.000000
5.304613	21.190868	13.742425	0.087419	0.127853	3.432100	0.000000	-0.015552	0.000000	0.000001	0.000000	0.000000	0.000000
5.603185	21.175939	13.651299	0.017947	0.141449	3.430134	0.000000	-0.006584	0.000000	0.000002	0.000000	0.000000	0.000000
5.936519	21.169223	13.565301	0.002201	0.116543	3.427939	0.000000	-0.006584	0.000000	0.000002	0.000000	0.000000	0.000000
6.269852	21.173004	13.495908	-0.013545	0.091637	3.425744	0.000000	-0.006584	0.000000	0.000002	0.000000	0.000000	0.000000
6.604435	21.187356	13.442952	-0.029350	0.066637	3.423541	0.000000	-0.006584	0.000000	0.000002	0.000000	0.000000	0.000000
6.901758	21.208985	13.409931	-0.098810	0.079459	3.421584	0.000000	0.002356	0.000000	0.000002	0.000000	0.000000	0.000000
7.450818	20.955953	13.583189	0.556929	-0.396876	3.394677	0.000000	-0.100222	0.000000	0.000002	0.000000	0.000000	0.000000
7.999878	20.000280	14.291880	1.173329	-0.901479	3.311855	0.000000	-0.201021	0.000000	0.000002	0.000000	0.000000	0.000000
8.548938	18.409472	15.586483	1.706850	-1.470292	3.174586	0.000000	-0.298255	0.000000	0.000002	0.000000	0.000000	0.000000
9.097998	16.295895	17.559209	2.119809	-2.143831	2.985307	0.000000	-0.390198	0.000000	0.000002	-0.000000	0.000000	0.000000
9.543958	14.646797	19.317071	1.591200	-1.781259	2.829600	0.000000	-0.308496	0.000000	0.000002	0.000000	0.000000	0.000000
9.984918	13.447181	20.698180	1.139586	-1.338871	2.710811	0.000000	-0.230792	0.000000	0.000002	0.000000	0.000000	0.000000
10.425878	12.621475	21.660681	0.740036	-0.835565	2.625674	0.000000	-0.155716	0.000000	0.000002	0.000000	0.000000	0.000000
10.866838	12.131956	22.160783	0.374296	-0.294241	2.573222	0.000000	-0.082413	0.000000	0.000002	0.000000	0.000000	0.000000
11.309048	11.956122	22.175216	0.054872	0.206031	2.552834	0.000000	-0.016309	0.000000	0.000002	0.000000	0.000000	0.000000
11.606371	11.930909	22.056857	0.029930	0.192054	2.547985	0.000000	-0.016309	0.000000	0.000002	0.000000	0.000000	0.000000
12.086371	11.921505	21.883315	-0.010338	0.169490	2.540157	0.000000	-0.016309	0.000000	0.000002	0.000000	0.000000	0.000000
12.566371	11.950758	21.731436	-0.050606	0.146925	2.532328	0.000000	-0.016309	0.000000	0.000002	0.000000	0.000000	0.000000
13.046371	12.018668	21.601219	-0.090873	0.124360	2.524499	0.000000	-0.016309	0.000000	0.000003	0.000000	0.000000	0.000000
13.526371	12.125235	21.492664	-0.131141	0.101796	2.516671	0.000000	-0.016309	0.000000	0.000003	0.000000	0.000000	0.000000
14.007621	12.270887	21.405574	-0.171514	0.079172	2.508822	0.000000	-0.016309	0.000000	0.000003	0.000000	0.000000	0.000000
14.304943	12.380293	21.362650	-0.166097	0.012809	2.503972	0.000000	-0.022450	0.000000	0.000003	0.000000	0.000000	0.000000
14.745903	12.685496	21.117512	-0.528662	0.540994	2.509703	0.000000	0.048465	0.000000	0.000003	0.000000	0.000000	0.000000
15.186863	13.319855	20.415673	-0.915380	1.044564	2.546796	0.000000	0.119932	0.000000	0.000003	0.000000	0.000000	0.000000
15.627823	14.312350	19.289068	-1.343919	1.500607	2.615673	0.000000	0.192765	0.000000	0.000003	0.000000	0.000000	0.000000
16.068783	15.708328	17.788954	-1.833858	1.888374	2.717121	0.000000	0.267794	0.000000	0.000003	0.000001	0.000000	0.000000
16.514743	17.595219	15.962086	-2.412339	2.190970	2.853987	0.000000	0.346334	0.000000	0.000004	0.000001	0.000000	0.000000
17.063803	20.018412	13.922095	-1.974884	1.546386	3.020419	0.000000	0.259016	0.000000	0.000004	0.000000	0.000000	0.000000
17.612863	21.881319	12.525660	-1.397933	1.011947	3.137573	0.000000	0.167103	0.000000	0.000004	0.000000	0.000000	0.000000
18.161923	23.052352	11.673316	-0.722238	0.549587	3.203373	0.000000	0.072226	0.000000	0.000004	0.000000	0.000000	0.000000
18.710983	23.448796	11.304352	0.004471	0.126372	3.216651	0.000000	-0.023931	0.000000	0.000004	0.000000	0.000000	0.000000
19.009556	23.486525	11.219330	-0.069568	0.128853	3.212015	0.000000	-0.015527	0.000000	0.000004	0.000000	0.000000	0.000000
19.342889	23.537657	11.143496	-0.083829	0.098649	3.206839	0.000000	-0.015527	0.000000	0.000005	0.000000	0.000000	0.000000
19.676223	23.598297	11.087798	-0.098090	0.068445	3.201664	0.000000	-0.015527	0.000000	0.000005	0.000000	0.000000	0.000000
20.010806	23.669018	11.052003	-0.229675	0.092887	3.196488	0.000000	0.000310	0.000000	0.000005	0.000000	0.000000	0.000000
20.308129	23.809525	11.004836	-0.305106	0.094505	3.196580	0.000000	0.008662	0.000000	0.000005	0.000000	0.000000	0.000000
20.857189	23.733924	11.123594	0.441983	-0.312076	3.175121	0.000000	-0.086713	0.000000	0.000005	-0.000000	0.000000	0.000000
21.406249	22.850287	11.698340	1.157854	-0.740885	3.101641	0.000000	-0.180550	0.000000	0.000005	-0.000000	0.000000	0.000000
21.955309	21.221028	12.770011	1.791939	-1.222465	2.977444	0.000000	-0.271184	0.000000	0.000004	-0.000000	0.000000	0.000000
22.504369	18.961232	14.414940	2.299451	-1.791119	2.804732	0.000000	-0.357009	0.000000	0.000004	-0.000000	0.000000	0.000000
22.950329	17.180463	15.891623	1.707759	-1.506158	2.662811	0.000000	-0.279811	0.000000	0.000004	-0.000000	0.000000	0.000000
23.391289	15.903636	17.068918	1.198788	-1.153526	2.555745	0.000000	-0.206255	0.000000	0.000004	-0.000000	0.000000	0.000000
23.832249	15.049925	17.910798	0.744585	-0.748409	2.480566	0.000000	-0.135049	0.000000	0.000004	-0.000000	0.000000	0.000000
24.273209	14.580326	18.378961	0.324401	-0.309240	2.436418	0.000000	-0.065380	0.000000	0.000004	-0.000000	0.000000	0.000000
24.715418	14.473500	18.451857	-0.045558	0.098682	2.422794	0.000000	-0.002397	0.000000	0.000004	0.000000	0.000000	0.000000
25.012741	14.506711	18.398014	-0.066143	0.082412	2.422082	0.000000	-0.002397	0.000000	0.000004	0.000000	0.000000	0.000000
25.346075	14.558499	18.349153	-0.089221	0.064171	2.421283	0.000000	-0.002397	0.000000	0.000004	0.000000	0.000000	0.000000
25.679408	14.625672	18.312453	-0.112300	0.045930	2.420484	0.000000	-0.002397	0.000000	0.000004	0.000000	0.000000	0.000000
26.013991	14.708272	18.288215	-0.016141	-0.120742	2.419657	0.000000	-0.022027	0.000000	0.000004	-0.000000	0.000000	0.000000
26.311314	14.723882	18.364918	-0.000255	-0.182272	2.413108	0.000000	-0.027944	0.000000	0.000004	-0.000000	0.000000	0.000000
26.752274	14.905538	18.326446	-0.413264	0.269185	2.415893	0.000000	0.040590	0.000000	0.000004	0.000000	0.000000	0.000000
27.193234	15.458352	17.893726	-0.845153	0.708394	2.448973	0.000000	0.109587	0.000000	0.000004	0.000000	0.000000	0.000000
27.634194	16.407581	17.086446	-1.315655	1.115372	2.512723	0.000000	0.179832	0.000000	0.000004	0.000000	0.000000	0.000000
28.075154	17.796591	15.941337	-1.846265	1.471601	2.607871	0.000000	0.252125	0.000000	0.000004	0.000000	0.000000	0.000000
28.521114	19.712982	14.493254	-2.466182	1.761787	2.737101	0.000000	0.327733	0.000000	0.000004	0.000000	0.000000	0.000000
29.070174	22.148721	12.879652	-1.943756	1.194405	2.894387	0.000000	0.244350	0.000000	0.000005	0.000000	0.000000	0.000000
29.619234	23.931524	11.839010	-1.284033	0.712098	3.004631	0.000000	0.156633	0.000000	0.000005	0.000000	0.000000	0.000000
30.168294	24.935463	11.297206	-0.533612	0.280511	3.065878	0.000000	0.066138	0.000000	0.000005	0.000000	0.000000	0.000000
30.717354	25.089624	11.215649	0.254501	-0.131095	3.077043	0.000000	-0.025531	0.000000	0.000005	-0.000000	0.000000	0.000000
31.015927	24.980474	11.284465	0.176624	-0.128689	3.071820	0.000000	-0.017492	0.000000	0.000005	-0.000000	0.000000	0.000000
31.349260	24.867312	11.380267	0.162864	-0.158717	3.065990	0.000000	-0.017492	0.000000	0.000005	-0.000000	0.000000	0.000000
31.682593	24.763323	11.496088	0.149104	-0.188745	3.060159	0.000000	-0.017492	0.000000	0.000005	-0.000000	0.000000	0.000000
32.017177	24.668169	11.632474	0.135292	-0.218886	3.054307	0.000000	-0.017492	0.000000	0.000005	-0.000000	0.000000	0.000000
32.314499	24.591367	11.770598	0.058768	-0.214917	3.049106	0.000000	-0.009525	0.000000	0.000005	-0.000000	0.000000	0.000000
32.863559	24.105570	12.245947	0.820773	-0.655944	3.018999	0.000000	-0.099982	0.000000	0.000005	-0.000000	0.000000	0.000000
33.412619	22.810039	13.228257	1.524803	-1.143692	2.939640	0.000000	-0.188665	0.000000	0.000004	-0.000000	0.000000	0.000000
33.961679	20.796283	14.787496	2.121128	-1.712903	2.812438	0.000000	-0.274001	0.000000	0.000004	-0.000001	0.000000	0.000000
34.510739	18.206544	17.034724	2.567628	-2.404120	2.639647	0.000000	-0.354478	0.000000	0.000004	-0.000001	0.000000	0.000000
34.956699	16.193047	19.044717	1.963521	-2.084176	2.497903	0.000000	-0.281561	0.000000	0.000004	-0.000001	0.000000	0.000000
35.397659	14.691698	20.706549	1.454125	-1.670151	2.389125	0.000000	-0.212278	0.000000	0.000003	-0.000000	0.000000	0.000000
35.838619	13.608712	21.968213	1.011164	-1.180137	2.310337	0.000000	-0.145413	0.000000	0.000003	-0.000000	0.000000	0.000000
36.279579	12.894613	22.772305	0.614400	-0.636427	2.260640	0.000000	-0.080205	0.000000	0.000003	-0.000000	0.000000	0.000000
36.721789	12.516083	23.082540	0.276293	-0.120418	2.239442	0.000000	-0.021401	0.000000	0.000003	-0.000000	0.000000	0.000000
37.019112	12.359389	23.158031	0.250724	-0.133485	2.233079	0.000000	-0.021401	0.000000	0.000003	-0.000000	0.000000	0.000000
37.352445	12.201795	23.251905	0.222059	-0.148136	2.225946	0.000000	-0.021401	0.000000	0.000003	-0.000000	0.000000	0.000000
37.685779	12.063311	23.355545	0.193393	-0.162786	2.218812	0.000000	-0.021401	0.000000	0.000003	-0.000000	0.000000	0.000000
38.020362	11.943525	23.469396	0.164620	-0.177491	2.211652	0.000000	-0.021401	0.000000	0.000003	-0.000000	0.000000	0.000000
38.317684	11.853237	23.578826	0.168118	-0.248380	2.205289	0.000000	-0.026809	0.000000	0.000003	-0.000000	0.000000	0.000000
38.758644	11.856161	23.536730	-0.174773	0.343481	2.207393	0.000000	0.036359	0.000000	0.000002	-0.000000	0.000000	0.000000
39.199604	12.163852	22.977585	-0.525650	0.919713	2.237416	0.000000	0.099942	0.000000	0.000002	-0.000000	0.000000	0.000000
39.640564	12.790369	21.926830	-0.900542	1.454099	2.295700	0.000000	0.164663	0.000000	0.000002	-0.000000	0.000000	0.000000
40.081524	13.764335	20.432275	-1.316578	1.922324	2.382910	0.000000	0.231259	0.000000	0.000002	0.000000	0.000000	0.000000
40.527484	15.147812	18.539354	-1.796588	2.304364	2.501510	0.000000	0.300894	0.000000	0.000002	0.000000	0.000000	0.000000
41.076544	16.913532	16.412281	-1.400272	1.592529	2.646192	0.000000	0.225348	0.000000	0.000002	0.000000	0.000000	0.000000
41.625604	18.186829	15.000386	-0.905048	0.994126	2.748236	0.000000	0.145806	0.000000	0.000002	-0.000000	0.000000	0.000000
42.174664	18.877762	14.203103	-0.345896	0.466533	2.805830	0.000000	0.063677	0.000000	0.000002	-0.000000	0.000000	0.000000
42.723724	18.937528	13.963643	0.237688	-0.027831	2.817953	0.000000	-0.019581	0.000000	0.000002	-0.000000	0.000000	0.000000
43.022297	18.830014	13.964860	0.171884	-0.012731	2.814305	0.000000	-0.012219	0.000000	0.000002	-0.000000	0.000000	0.000000
43.502297	18.677602	13.993583	0.145640	-0.047108	2.808440	0.000000	-0.012219	0.000000	0.000002	-0.000000	0.000000	0.000000
43.982297	18.550385	14.055308	0.119396	-0.081486	2.802576	0.000000	-0.012219	0.000000	0.000002	-0.000000	0.000000	0.000000
44.462297	18.448363	14.150036	0.093151	-0.115863	2.796711	0.000000	-0.012219	0.000000	0.000002	-0.000000	0.000000	0.000000
44.942297	18.371535	14.277766	0.066907	-0.150241	2.790846	0.000000	-0.012219	0.000000	0.000002	-0.000000	0.000000	0.000000
45.423547	18.320027	14.438781	-0.050173	-0.113169	2.784983	0.000000	0.001580	0.000000	0.000002	-0.000000	0.000000	0.000000
45.720870	18.354699	14.512278	-0.114400	-0.096108	2.785453	0.000000	0.008858	0.000000	0.000002	-0.000000	0.000000	0.000000
46.269930	18.171261	14.898573	0.446518	-0.611602	2.767747	0.000000	-0.073257	0.000000	0.000001	-0.000000	0.000000	0.000000
46.818990	17.385619	15.871399	0.975896	-1.170659	2.705247	0.000000	-0.154072	0.000000	0.000001	-0.000000	0.000000	0.000000
47.368050	16.053268	17.500048	1.436342	-1.813100	2.599060	0.000000	-0.232155	0.000000	0.000001	-0.000000	0.000000	0.000000
47.917110	14.268319	19.900525	1.795332	-2.584684	2.451069	0.000000	-0.306120	0.000000	0.000001	-0.000000	0.000000	0.000000
48.363070	12.879148	22.034863	1.330716	-2.181136	2.329843	0.000000	-0.237827	0.000000	0.000001	-0.000000	0.000000	0.000000
48.804030	11.885738	23.743805	0.930663	-1.679618	2.239429	0.000000	-0.172640	0.000000	0.000001	-0.000000	0.000000	0.000000
49.244990	11.225132	24.974930	0.573130	-1.101679	2.177300	0.000000	-0.109420	0.000000	0.000000	-0.000000	0.000000	0.000000
49.685950	10.867146	25.672225	0.241781	-0.473614	2.142747	0.000000	-0.047446	0.000000	0.000000	-0.000000	0.000000	0.000000
50.128160	10.795558	25.803680	-0.052164	0.112672	2.135389	0.000000	0.008752	0.000000	0.000000	-0.000000	0.000000	0.000000
50.425482	10.834787	25.740149	-0.079780	0.101004	2.137991	0.000000	0.008752	0.000000	0.000000	-0.000000	0.000000	0.000000
50.758816	10.898294	25.677174	-0.110741	0.087921	2.140908	0.000000	0.008752	0.000000	0.000000	-0.000000	0.000000	0.000000
51.092149	10.982442	25.622921	-0.141702	0.074839	2.143825	0.000000	0.008752	0.000000	-0.000000	-0.000000	0.000000	0.000000
51.426732	11.087437	25.577753	-0.082830	-0.145791	2.146732	0.000000	-0.008664	0.000000	-0.000000	-0.000000	0.000000	0.000000
51.724055	11.144719	25.667976	-0.082500	-0.220608	2.144156	0.000000	-0.013922	0.000000	-0.000000	-0.000000	0.000000	0.000000
52.165015	11.362956	25.577002	-0.414290	0.426132	2.151605	0.000000	0.047739	0.000000	-0.000000	-0.000000	0.000000	0.000000
52.605975	11.881014	24.922059	-0.765008	1.053483	2.186338	0.000000	0.109944	0.000000	-0.000001	-0.000000	0.000000	0.000000
53.046935	12.722561	23.732945	-1.150677	1.632902	2.248751	0.000000	0.173401	0.000000	-0.000001	-0.000000	0.000000	0.000000
53.487895	13.926047	22.063765	-1.588917	2.138025	2.339554	0.000000	0.238833	0.000000	-0.000001	-0.000000	0.000000	0.000000
53.933855	15.567078	19.965506	-2.103988	2.547204	2.461286	0.000000	0.307384	0.000000	-0.000001	-0.000000	0.000000	0.000000
54.482915	17.679800	17.604528	-1.721124	1.778215	2.609879	0.000000	0.233079	0.000000	-0.000001	-0.000000	0.000000	0.000000
55.031975	19.302440	16.013901	-1.216688	1.135885	2.716476	0.000000	0.154639	0.000000	-0.000001	-0.000000	0.000000	0.000000
55.581035	20.320384	15.080329	-0.626312	0.574461	2.779187	0.000000	0.073456	0.000000	-0.000001	-0.000000	0.000000	0.000000
56.130095	20.661728	14.737315	0.008304	0.053955	2.796901	0.000000	-0.009029	0.000000	-0.000002	-0.000000	0.000000	0.000000
56.428668	20.693330	14.688203	-0.060163	0.072029	2.796387	0.000000	-0.001721	0.000000	-0.000002	-0.000000	0.000000	0.000000
56.762001	20.738828	14.647787	-0.076329	0.049217	2.795813	0.000000	-0.001721	0.000000	-0.000002	-0.000000	0.000000	0.000000
57.095334	20.795103	14.622579	-0.092496	0.026406	2.795239	0.000000	-0.001721	0.000000	-0.000002	-0.000000	0.000000	0.000000
57.429918	20.862427	14.612571	-0.108723	0.003508	2.794664	0.000000	-0.001721	0.000000	-0.000002	-0.000000	0.000000	0.000000
57.727240	20.931367	14.616534	-0.177834	0.021352	2.794152	0.000000	0.005579	0.000000	-0.000002	-0.000000	0.000000	0.000000
58.276300	20.769492	14.873841	0.470910	-0.492751	2.774575	0.000000	-0.076787	0.000000	-0.000002	-0.000000	0.000000	0.000000
58.825360	19.909348	15.711540	1.086392	-1.041951	2.710081	0.000000	-0.157791	0.000000	-0.000002	-0.000000	0.000000	0.000000
59.374420	18.411691	17.189298	1.625136	-1.665367	2.601815	0.000000	-0.235997	0.000000	-0.000002	-0.000000	0.000000	0.000000
59.923480	16.382308	19.412371	2.049089	-2.407404	2.451697	0.000000	-0.310016	0.000000	-0.000002	0.000000	0.000000	0.000000
60.369440	14.793827	21.388334	1.525462	-2.004702	2.328733	0.000000	-0.241730	0.000000	-0.000002	0.000000	0.000000	0.000000
60.810400	13.651136	22.945052	1.075741	-1.512158	2.236589	0.000000	-0.176594	0.000000	-0.000002	-0.000000	0.000000	0.000000
61.251360	12.881973	24.035272	0.675168	-0.950812	2.172697	0.000000	-0.113470	0.000000	-0.000002	-0.000000	0.000000	0.000000
61.692320	12.451197	24.609389	0.305442	-0.346204	2.136329	0.000000	-0.051637	0.000000	-0.000002	-0.000000	0.000000	0.000000
62.134530	12.339178	24.640747	-0.020171	0.213673	2.127076	0.000000	0.004390	0.000000	-0.000002	-0.000000	0.000000	0.000000
62.431853	12.358339	24.517438	-0.044276	0.201056	2.128381	0.000000	0.004390	0.000000	-0.000002	-0.000000	0.000000	0.000000
62.765186	12.396865	24.388116	-0.071302	0.186910	2.129845	0.000000	0.004390	0.000000	-0.000002	-0.000000	0.000000	0.000000
63.098520	12.453408	24.268224	-0.098327	0.172765	2.131309	0.000000	0.004390	0.000000	-0.000003	-0.000000	0.000000	0.000000
63.433103	12.528281	24.157366	-0.125453	0.158567	2.132778	0.000000	0.004390	0.000000	-0.000003	-0.000000	0.000000	0.000000
63.730426	12.610049	24.066827	-0.118635	0.086929	2.134083	0.000000	-0.000843	0.000000	-0.000003	-0.000000	0.000000	0.000000
64.171386	12.875196	23.725099	-0.484941	0.685085	2.147253	0.000000	0.060632	0.000000	-0.000003	-0.000000	0.000000	0.000000
64.612346	13.471907	22.867628	-0.873403	1.252071	2.187657	0.000000	0.122798	0.000000	-0.000003	-0.000000	0.000000	0.000000
65.053306	14.427446	21.533427	-1.301768	1.762088	2.255756	0.000000	0.186362	0.000000	-0.000003	-0.000000	0.000000	0.000000
65.494266	15.785467	19.783202	-1.789608	2.191932	2.352325	0.000000	0.252049	0.000000	-0.000003	-0.000001	0.000000	0.000000
65.940226	17.631184	17.671810	-2.363903	2.522802	2.480038	0.000000	0.321009	0.000000	-0.000004	-0.000001	0.000000	0.000000
66.489286	19.997012	15.309741	-1.919461	1.804616	2.635922	0.000000	0.245978	0.000000	-0.000004	-0.000000	0.000000	0.000000
67.038346	21.796998	13.661536	-1.339437	1.214970	2.749350	0.000000	0.166584	0.000000	-0.000004	-0.000000	0.000000	0.000000
67.587406	22.903998	12.609797	-0.664802	0.711863	2.818309	0.000000	0.084235	0.000000	-0.000004	-0.000000	0.000000	0.000000
68.136466	23.239821	12.079612	0.056791	0.259460	2.841575	0.000000	0.000392	0.000000	-0.000004	-0.000000	0.000000	0.000000
68.435038	23.246005	11.913834	-0.016780	0.264213	2.843909	0.000000	0.007816	0.000000	-0.000004	-0.000000	0.000000	0.000000
68.768372	23.261973	11.747669	-0.031124	0.234281	2.846515	0.000000	0.007816	0.000000	-0.000004	-0.000000	0.000000	0.000000
69.101705	23.287503	11.601459	-0.045467	0.204349	2.849120	0.000000	0.007816	0.000000	-0.000004	-0.000000	0.000000	0.000000
69.436288	23.322746	11.474768	-0.059864	0.174305	2.851735	0.000000	0.007816	0.000000	-0.000004	-0.000000	0.000000	0.000000
69.733611	23.362148	11.379056	-0.133702	0.177339	2.854059	0.000000	0.015274	0.000000	-0.000004	-0.000000	0.000000	0.000000
70.282671	23.107745	11.412126	0.594301	-0.237924	2.839258	0.000000	-0.069111	0.000000	-0.000004	0.000000	0.000000	0.000000
