#ParticleID	Turn	x[m]	xp	y[m]	yp	z[m]	dE[GeV]# s	beta_x	beta_y	alpha_x	alpha_y	D_x	D_y	D_px	D_py	orbit_x	orbit_px	orbit_y	orbit_py
0.300000	11.824863	24.973897	-0.012382	-0.027653	2.618132	0.000000	0.000004	0.000000	0.000000	0.000001	0.000000	0.000000
0.601250	11.839999	24.994195	-0.037862	-0.039725	2.618133	0.000000	0.000004	0.000000	0.000000	0.000001	0.000000	0.000000
0.898573	11.869990	25.021359	-0.033901	-0.112999	2.618134	0.000000	-0.006416	0.000000	0.000000	0.000001	0.000000	0.000000
1.339533	12.052154	24.843485	-0.380774	0.514843	2.631598	0.000000	0.067541	0.000000	0.000001	0.000001	0.000000	0.000000
1.780493	12.546718	24.120159	-0.745043	1.119259	2.677813	0.000000	0.142268	0.000000	0.000001	0.000001	0.000000	0.000000
2.221453	13.376278	22.884292	-1.143351	1.672750	2.757305	0.000000	0.218616	0.000000	0.000001	0.000001	0.000000	0.000000
2.662413	14.578733	21.192114	-1.593896	2.150132	2.870979	0.000000	0.297453	0.000000	0.000002	0.000001	0.000000	0.000000
3.108373	16.229804	19.095800	-2.121557	2.530816	3.021992	0.000000	0.380168	0.000000	0.000002	0.000001	0.000000	0.000000
3.657433	18.346994	16.741402	-1.711643	1.782548	3.205455	0.000000	0.287130	0.000000	0.000002	0.000001	0.000000	0.000000
4.206493	19.944591	15.134567	-1.180827	1.161246	3.336359	0.000000	0.188999	0.000000	0.000003	0.000001	0.000000	0.000000
4.755553	20.909748	14.160844	-0.566603	0.622658	3.412382	0.000000	0.087516	0.000000	0.000003	0.000000	0.000000	0.000000
5.304613	21.174292	13.750878	0.087643	0.128419	3.432176	0.000000	-0.015520	0.000000	0.000003	0.000000	0.000000	0.000000
5.603185	21.159207	13.659397	0.018204	0.142048	3.430220	0.000000	-0.006552	0.000000	0.000003	0.000000	0.000000	0.000000
5.936519	21.152324	13.572997	0.002446	0.117152	3.428035	0.000000	-0.006552	0.000000	0.000003	0.000000	0.000000	0.000000
6.269852	21.155946	13.503194	-0.013313	0.092256	3.425851	0.000000	-0.006552	0.000000	0.000003	0.000000	0.000000	0.000000
6.604435	21.170148	13.449820	-0.029131	0.067267	3.423659	0.000000	-0.006552	0.000000	0.000004	0.000000	0.000000	0.000000
6.901758	21.191650	13.416423	-0.098556	0.080115	3.421710	0.000000	0.002388	0.000000	0.000004	0.000000	0.000000	0.000000
7.450818	20.938658	13.589059	0.556600	-0.396392	3.394820	0.000000	-0.100194	0.000000	0.000004	0.000000	0.000000	0.000000
7.999878	19.983659	14.297298	1.172440	-0.901133	3.312012	0.000000	-0.200998	0.000000	0.000004	0.000000	0.000000	0.000000
8.548938	18.394107	15.591586	1.705465	-1.470060	3.174755	0.000000	-0.298237	0.000000	0.000004	0.000000	0.000000	0.000000
9.097998	16.282281	17.564112	2.118024	-2.143696	2.985483	0.000000	-0.390186	0.000000	0.000004	-0.000000	0.000000	0.000000
9.543958	14.634593	19.321774	1.589812	-1.780947	2.829782	0.000000	-0.308480	0.000000	0.000004	-0.000000	0.000000	0.000000
9.984918	13.436051	20.702535	1.138528	-1.338397	2.711002	0.000000	-0.230770	0.000000	0.000004	0.000000	0.000000	0.000000
10.425878	12.611151	21.664554	0.739260	-0.834950	2.625876	0.000000	-0.155689	0.000000	0.000004	0.000000	0.000000	0.000000
10.866838	12.122206	22.164063	0.373767	-0.293514	2.573436	0.000000	-0.082381	0.000000	0.000004	0.000000	0.000000	0.000000
11.309048	11.946739	22.177815	0.054542	0.206832	2.553064	0.000000	-0.016272	0.000000	0.000004	0.000000	0.000000	0.000000
11.606371	11.921728	22.058980	0.029580	0.192852	2.548226	0.000000	-0.016272	0.000000	0.000004	0.000000	0.000000	0.000000
12.086371	11.912674	21.884675	-0.010718	0.170283	2.540415	0.000000	-0.016272	0.000000	0.000005	0.000000	0.000000	0.000000
12.566371	11.942306	21.732036	-0.051016	0.147714	2.532604	0.000000	-0.016272	0.000000	0.000005	0.000000	0.000000	0.000000
13.046371	12.010624	21.601064	-0.091313	0.125145	2.524794	0.000000	-0.016272	0.000000	0.000005	0.000000	0.000000	0.000000
13.526371	12.117628	21.491758	-0.131611	0.102576	2.516983	0.000000	-0.016272	0.000000	0.000005	0.000000	0.000000	0.000000
14.007621	12.263748	21.403918	-0.172014	0.079948	2.509151	0.000000	-0.016272	0.000000	0.000005	0.000000	0.000000	0.000000
14.304943	12.373456	21.360534	-0.166634	0.013589	2.504313	0.000000	-0.022413	0.000000	0.000006	0.000000	0.000000	0.000000
14.745903	12.679070	21.114739	-0.529060	0.541699	2.510062	0.000000	0.048511	0.000000	0.000006	0.000001	0.000000	0.000000
15.186863	13.313725	20.412324	-0.915658	1.045162	2.547177	0.000000	0.119987	0.000000	0.000006	0.000001	0.000000	0.000000
15.627823	14.306417	19.285248	-1.344089	1.501071	2.616081	0.000000	0.192831	0.000000	0.000006	0.000001	0.000000	0.000000
16.068783	15.702500	17.784792	-1.833928	1.888683	2.717559	0.000000	0.267870	0.000000	0.000007	0.000001	0.000000	0.000000
16.514743	17.589409	15.957723	-2.412312	2.191109	2.854462	0.000000	0.346422	0.000000	0.000007	0.000001	0.000000	0.000000
17.063803	20.012712	13.917541	-1.975108	1.546595	3.020937	0.000000	0.259088	0.000000	0.000008	0.000001	0.000000	0.000000
17.612863	21.875997	12.520830	-1.398393	1.012242	3.138126	0.000000	0.167158	0.000000	0.000008	0.000001	0.000000	0.000000
18.161923	23.047651	11.668104	-0.722902	0.549989	3.203951	0.000000	0.072263	0.000000	0.000009	0.000000	0.000000	0.000000
18.710983	23.444916	11.298627	0.003650	0.126910	3.217244	0.000000	-0.023914	0.000000	0.000009	0.000000	0.000000	0.000000
19.009556	23.483128	11.213299	-0.070380	0.129357	3.212613	0.000000	-0.015509	0.000000	0.000009	0.000000	0.000000	0.000000
19.342889	23.534802	11.137135	-0.084645	0.099133	3.207444	0.000000	-0.015509	0.000000	0.000009	0.000000	0.000000	0.000000
19.676223	23.595987	11.081121	-0.098909	0.068909	3.202274	0.000000	-0.015509	0.000000	0.000009	0.000000	0.000000	0.000000
20.010806	23.667258	11.045023	-0.230489	0.093296	3.197105	0.000000	0.000332	0.000000	0.000009	0.000000	0.000000	0.000000
20.308129	23.808250	10.997618	-0.305920	0.094875	3.197203	0.000000	0.008685	0.000000	0.000009	0.000000	0.000000	0.000000
20.857189	23.733562	11.115857	0.441145	-0.311494	3.175751	0.000000	-0.086711	0.000000	0.000009	-0.000000	0.000000	0.000000
21.406249	22.850831	11.689830	1.157050	-0.740050	3.102267	0.000000	-0.180568	0.000000	0.000009	-0.000000	0.000000	0.000000
21.955309	21.222411	12.760419	1.791227	-1.221318	2.978055	0.000000	-0.271222	0.000000	0.000009	-0.000001	0.000000	0.000000
22.504369	18.963323	14.403880	2.298880	-1.789577	2.805317	0.000000	-0.357066	0.000000	0.000008	-0.000001	0.000000	0.000000
22.950329	17.183056	15.879296	1.707199	-1.504868	2.663374	0.000000	-0.279854	0.000000	0.000008	-0.000001	0.000000	0.000000
23.391289	15.906728	17.055584	1.198212	-1.152544	2.556293	0.000000	-0.206283	0.000000	0.000008	-0.000001	0.000000	0.000000
23.832249	15.053541	17.896753	0.743968	-0.747781	2.481105	0.000000	-0.135063	0.000000	0.000007	-0.000000	0.000000	0.000000
24.273209	14.584516	18.364528	0.323713	-0.308994	2.436953	0.000000	-0.065380	0.000000	0.000007	-0.000000	0.000000	0.000000
24.715418	14.478340	18.437382	-0.046336	0.098571	2.423333	0.000000	-0.002384	0.000000	0.000007	0.000000	0.000000	0.000000
25.012741	14.512012	18.383608	-0.066916	0.082289	2.422624	0.000000	-0.002384	0.000000	0.000007	0.000000	0.000000	0.000000
25.346075	14.564313	18.334834	-0.089988	0.064034	2.421829	0.000000	-0.002384	0.000000	0.000007	0.000000	0.000000	0.000000
25.679408	14.631996	18.298229	-0.113060	0.045779	2.421034	0.000000	-0.002384	0.000000	0.000007	0.000000	0.000000	0.000000
26.013991	14.715103	18.274097	-0.016841	-0.120793	2.420212	0.000000	-0.022019	0.000000	0.000007	-0.000000	0.000000	0.000000
26.311314	14.731126	18.350834	-0.000929	-0.182299	2.413665	0.000000	-0.027937	0.000000	0.000007	-0.000000	0.000000	0.000000
26.752274	14.913457	18.312554	-0.414126	0.268778	2.416457	0.000000	0.040612	0.000000	0.000007	0.000000	0.000000	0.000000
27.193234	15.467130	17.880355	-0.846244	0.707625	2.449549	0.000000	0.109623	0.000000	0.000007	0.000000	0.000000	0.000000
27.634194	16.417439	17.073901	-1.317024	1.114276	2.513318	0.000000	0.179883	0.000000	0.000008	0.000001	0.000000	0.000000
28.075154	17.807803	15.929885	-1.847975	1.470228	2.608492	0.000000	0.252192	0.000000	0.000008	0.000001	0.000000	0.000000
28.521114	19.725902	14.483129	-2.468315	1.760199	2.737756	0.000000	0.327817	0.000000	0.000008	0.000001	0.000000	0.000000
29.070174	22.163817	12.871054	-1.945562	1.193195	2.895081	0.000000	0.244412	0.000000	0.000009	0.000001	0.000000	0.000000
29.619234	23.948365	11.831573	-1.285385	0.711180	3.005352	0.000000	0.156672	0.000000	0.000009	0.000000	0.000000	0.000000
30.168294	24.953494	11.290648	-0.534414	0.279820	3.066614	0.000000	0.066153	0.000000	0.000009	0.000000	0.000000	0.000000
30.717354	25.108206	11.209749	0.254305	-0.131609	3.077780	0.000000	-0.025540	0.000000	0.000009	-0.000000	0.000000	0.000000
31.015927	24.999198	11.278886	0.176392	-0.129236	3.072556	0.000000	-0.017499	0.000000	0.000009	-0.000000	0.000000	0.000000
31.349260	24.886186	11.375059	0.162643	-0.159283	3.066723	0.000000	-0.017499	0.000000	0.000009	-0.000000	0.000000	0.000000
31.682593	24.782340	11.491264	0.148895	-0.189331	3.060890	0.000000	-0.017499	0.000000	0.000009	-0.000000	0.000000	0.000000
32.017177	24.687322	11.628048	0.135095	-0.219491	3.055035	0.000000	-0.017499	0.000000	0.000009	-0.000000	0.000000	0.000000
32.314499	24.610635	11.766536	0.058533	-0.215551	3.049833	0.000000	-0.009531	0.000000	0.000009	-0.000000	0.000000	0.000000
32.863559	24.124743	12.242533	0.821180	-0.656497	3.019716	0.000000	-0.100011	0.000000	0.000009	-0.000000	0.000000	0.000000
33.412619	22.828422	13.225425	1.525824	-1.144205	2.940335	0.000000	-0.188717	0.000000	0.000008	-0.000001	0.000000	0.000000
33.961679	20.813240	14.785221	2.122690	-1.713411	2.813098	0.000000	-0.274075	0.000000	0.000008	-0.000001	0.000000	0.000000
34.510739	18.221537	17.033021	2.569621	-2.404661	2.640261	0.000000	-0.354573	0.000000	0.000007	-0.000001	0.000000	0.000000
34.956699	16.206466	19.043551	1.965070	-2.084832	2.498479	0.000000	-0.281640	0.000000	0.000007	-0.000001	0.000000	0.000000
35.397659	14.703918	20.706002	1.455304	-1.670894	2.389670	0.000000	-0.212343	0.000000	0.000006	-0.000001	0.000000	0.000000
35.838619	13.620036	21.968346	1.012026	-1.180931	2.310856	0.000000	-0.145464	0.000000	0.000006	-0.000001	0.000000	0.000000
36.279579	12.905300	22.773148	0.614986	-0.637236	2.261140	0.000000	-0.080242	0.000000	0.000006	-0.000001	0.000000	0.000000
36.721789	12.526365	23.084092	0.276653	-0.121208	2.239928	0.000000	-0.021427	0.000000	0.000006	-0.000000	0.000000	0.000000
37.019112	12.369451	23.160054	0.251100	-0.134278	2.233558	0.000000	-0.021427	0.000000	0.000005	-0.000000	0.000000	0.000000
37.352445	12.211600	23.254456	0.222453	-0.148930	2.226415	0.000000	-0.021427	0.000000	0.000005	-0.000000	0.000000	0.000000
37.685779	12.072847	23.358627	0.193806	-0.163582	2.219273	0.000000	-0.021427	0.000000	0.000005	-0.000000	0.000000	0.000000
38.020362	11.952779	23.473011	0.165051	-0.178289	2.212104	0.000000	-0.021427	0.000000	0.000005	-0.000000	0.000000	0.000000
38.317684	11.862230	23.582915	0.168587	-0.249188	2.205734	0.000000	-0.026836	0.000000	0.000005	-0.000000	0.000000	0.000000
38.758644	11.864829	23.541482	-0.174504	0.342792	2.207828	0.000000	0.036344	0.000000	0.000005	-0.000000	0.000000	0.000000
39.199604	12.172366	22.982879	-0.525569	0.919175	2.237847	0.000000	0.099937	0.000000	0.000005	-0.000000	0.000000	0.000000
39.640564	12.798893	21.932523	-0.900645	1.453736	2.296132	0.000000	0.164669	0.000000	0.000005	-0.000000	0.000000	0.000000
40.081524	13.773032	20.438204	-1.316868	1.922154	2.383347	0.000000	0.231276	0.000000	0.000005	0.000000	0.000000	0.000000
40.527484	15.156857	18.545345	-1.797081	2.304394	2.501957	0.000000	0.300923	0.000000	0.000005	0.000000	0.000000	0.000000
41.076544	16.922938	16.418315	-1.400432	1.592422	2.646651	0.000000	0.225363	0.000000	0.000005	-0.000000	0.000000	0.000000
41.625604	18.196221	15.006616	-0.904863	0.993874	2.748699	0.000000	0.145805	0.000000	0.000005	-0.000000	0.000000	0.000000
42.174664	18.886767	14.209697	-0.345380	0.466117	2.806288	0.000000	0.063662	0.000000	0.000004	-0.000000	0.000000	0.000000
42.723724	18.945800	13.970796	0.238500	-0.028439	2.818400	0.000000	-0.019611	0.000000	0.000004	-0.000000	0.000000	0.000000
43.022297	18.837813	13.972362	0.172678	-0.013310	2.814743	0.000000	-0.012248	0.000000	0.000004	-0.000000	0.000000	0.000000
43.502297	18.684638	14.001632	0.146437	-0.047669	2.808864	0.000000	-0.012248	0.000000	0.000004	-0.000000	0.000000	0.000000
43.982297	18.556653	14.063887	0.120197	-0.082029	2.802986	0.000000	-0.012248	0.000000	0.000004	-0.000000	0.000000	0.000000
44.462297	18.453860	14.159128	0.093956	-0.116388	2.797107	0.000000	-0.012248	0.000000	0.000003	-0.000000	0.000000	0.000000
44.942297	18.376257	14.287353	0.067716	-0.150748	2.791228	0.000000	-0.012248	0.000000	0.000003	-0.000000	0.000000	0.000000
45.423547	18.323968	14.448848	-0.049380	-0.113609	2.785352	0.000000	0.001553	0.000000	0.000003	-0.000000	0.000000	0.000000
45.720870	18.358168	14.522602	-0.113611	-0.096508	2.785814	0.000000	0.008831	0.000000	0.000003	-0.000000	0.000000	0.000000
46.269930	18.173805	14.909512	0.447402	-0.612329	2.768090	0.000000	-0.073295	0.000000	0.000003	-0.000000	0.000000	0.000000
46.818990	17.387170	15.883338	0.976812	-1.171764	2.705566	0.000000	-0.154121	0.000000	0.000002	-0.000001	0.000000	0.000000
47.368050	16.053826	17.513444	1.437225	-1.814662	2.599350	0.000000	-0.232213	0.000000	0.000002	-0.000001	0.000000	0.000000
47.917110	14.267955	19.915937	1.796119	-2.586814	2.451325	0.000000	-0.306187	0.000000	0.000002	-0.000001	0.000000	0.000000
48.363070	12.878113	22.052033	1.331438	-2.182932	2.330071	0.000000	-0.237888	0.000000	0.000001	-0.000001	0.000000	0.000000
48.804030	11.884083	23.762380	0.931355	-1.680998	2.239631	0.000000	-0.172696	0.000000	0.000001	-0.000001	0.000000	0.000000
49.244990	11.222868	24.994515	0.573822	-1.102580	2.177479	0.000000	-0.109470	0.000000	0.000001	-0.000001	0.000000	0.000000
49.685950	10.864260	25.692378	0.242506	-0.473996	2.142905	0.000000	-0.047492	0.000000	0.000001	-0.000001	0.000000	0.000000
50.128160	10.792003	25.823934	-0.051382	0.112778	2.135527	0.000000	0.008709	0.000000	0.000000	-0.000001	0.000000	0.000000
50.425482	10.830770	25.760338	-0.079005	0.101118	2.138116	0.000000	0.008709	0.000000	0.000000	-0.000001	0.000000	0.000000
50.758816	10.893762	25.697283	-0.109973	0.088046	2.141020	0.000000	0.008709	0.000000	-0.000000	-0.000001	0.000000	0.000000
51.092149	10.977401	25.642944	-0.140942	0.074973	2.143923	0.000000	0.008709	0.000000	-0.000000	-0.000001	0.000000	0.000000
51.426732	11.081890	25.597683	-0.082123	-0.145809	2.146815	0.000000	-0.008707	0.000000	-0.000000	-0.000001	0.000000	0.000000
51.724055	11.138755	25.687914	-0.081818	-0.220666	2.144226	0.000000	-0.013966	0.000000	-0.000001	-0.000001	0.000000	0.000000
52.165015	11.356325	25.596758	-0.413454	0.426601	2.151657	0.000000	0.047697	0.000000	-0.000001	-0.000001	0.000000	0.000000
52.605975	11.873564	24.941175	-0.763980	1.054459	2.186372	0.000000	0.109903	0.000000	-0.000001	-0.000001	0.000000	0.000000
53.046935	12.714104	23.750994	-1.149410	1.634339	2.248767	0.000000	0.173361	0.000000	-0.000001	-0.000001	0.000000	0.000000
53.487895	13.916346	22.080367	-1.587354	2.139858	2.339552	0.000000	0.238793	0.000000	-0.000002	-0.000001	0.000000	0.000000
53.933855	15.555823	19.980326	-2.102053	2.549350	2.461267	0.000000	0.307344	0.000000	-0.000002	-0.000001	0.000000	0.000000
54.482915	17.666564	17.617309	-1.719471	1.779805	2.609838	0.000000	0.233039	0.000000	-0.000002	-0.000001	0.000000	0.000000
55.031975	19.287597	16.025189	-1.215433	1.137031	2.716414	0.000000	0.154601	0.000000	-0.000003	-0.000001	0.000000	0.000000
55.581035	20.304423	15.090563	-0.625544	0.575246	2.779105	0.000000	0.073421	0.000000	-0.000003	-0.000000	0.000000	0.000000
56.130095	20.645217	14.746860	0.008531	0.054434	2.796800	0.000000	-0.009062	0.000000	-0.000003	-0.000000	0.000000	0.000000
56.428668	20.676662	14.697443	-0.059904	0.072544	2.796277	0.000000	-0.001754	0.000000	-0.000003	-0.000000	0.000000	0.000000
56.762001	20.721991	14.656680	-0.076083	0.049745	2.795692	0.000000	-0.001754	0.000000	-0.000004	-0.000000	0.000000	0.000000
57.095334	20.778106	14.631116	-0.092262	0.026946	2.795108	0.000000	-0.001754	0.000000	-0.000004	-0.000000	0.000000	0.000000
57.429918	20.845279	14.620741	-0.108502	0.004062	2.794521	0.000000	-0.001754	0.000000	-0.000004	-0.000000	0.000000	0.000000
57.727240	20.914090	14.624372	-0.177580	0.021938	2.794000	0.000000	0.005547	0.000000	-0.000004	-0.000000	0.000000	0.000000
58.276300	20.752255	14.881157	0.470583	-0.492380	2.774406	0.000000	-0.076814	0.000000	-0.000004	-0.000000	0.000000	0.000000
58.825360	19.892781	15.718555	1.085507	-1.041770	2.709899	0.000000	-0.157813	0.000000	-0.000004	-0.000000	0.000000	0.000000
59.374420	18.396376	17.196210	1.623755	-1.665362	2.601623	0.000000	-0.236012	0.000000	-0.000004	-0.000000	0.000000	0.000000
59.923480	16.368738	19.419374	2.047310	-2.407574	2.451498	0.000000	-0.310026	0.000000	-0.000004	0.000000	0.000000	0.000000
60.369440	14.781662	21.395390	1.524079	-2.004650	2.328529	0.000000	-0.241745	0.000000	-0.000004	0.000000	0.000000	0.000000
60.810400	13.640041	22.951966	1.074688	-1.511888	2.236377	0.000000	-0.176614	0.000000	-0.000004	-0.000000	0.000000	0.000000
61.251360	12.871680	24.041856	0.674396	-0.950336	2.172474	0.000000	-0.113495	0.000000	-0.000004	-0.000000	0.000000	0.000000
61.692320	12.441475	24.615470	0.304915	-0.345544	2.136094	0.000000	-0.051669	0.000000	-0.000004	-0.000000	0.000000	0.000000
62.134530	12.329822	24.646173	-0.020498	0.214473	2.126826	0.000000	0.004353	0.000000	-0.000005	-0.000000	0.000000	0.000000
62.431853	12.349184	24.522390	-0.044622	0.201854	2.128120	0.000000	0.004353	0.000000	-0.000005	-0.000000	0.000000	0.000000
62.765186	12.387947	24.392536	-0.071669	0.187707	2.129571	0.000000	0.004353	0.000000	-0.000005	-0.000000	0.000000	0.000000
63.098520	12.444742	24.272113	-0.098715	0.173561	2.131022	0.000000	0.004353	0.000000	-0.000005	-0.000000	0.000000	0.000000
63.433103	12.519881	24.160723	-0.125862	0.159361	2.132479	0.000000	0.004353	0.000000	-0.000005	-0.000000	0.000000	0.000000
63.730426	12.601897	24.069712	-0.119081	0.087713	2.133773	0.000000	-0.000880	0.000000	-0.000005	-0.000000	0.000000	0.000000
64.171386	12.867360	23.727265	-0.485213	0.685925	2.146925	0.000000	0.060587	0.000000	-0.000005	-0.000001	0.000000	0.000000
64.612346	13.464239	22.869042	-0.873512	1.252929	2.187308	0.000000	0.122744	0.000000	-0.000006	-0.000001	0.000000	0.000000
65.053306	14.419804	21.534092	-1.301720	1.762925	2.255381	0.000000	0.186299	0.000000	-0.000006	-0.000001	0.000000	0.000000
65.494266	15.777712	19.783153	-1.789400	2.192709	2.351921	0.000000	0.251976	0.000000	-0.000006	-0.000001	0.000000	0.000000
65.940226	17.623168	17.671108	-2.363525	2.523483	2.479598	0.000000	0.320925	0.000000	-0.000007	-0.000001	0.000000	0.000000
66.489286	19.988747	15.308333	-1.919389	1.805228	2.635441	0.000000	0.245909	0.000000	-0.000007	-0.000001	0.000000	0.000000
67.038346	21.788825	13.659476	-1.339677	1.215555	2.748835	0.000000	0.166531	0.000000	-0.000008	-0.000001	0.000000	0.000000
67.587406	22.896254	12.607091	-0.665337	0.712463	2.817770	0.000000	0.084199	0.000000	-0.000008	-0.000000	0.000000	0.000000
68.136466	23.232810	12.076219	0.055998	0.260118	2.841022	0.000000	0.000373	0.000000	-0.000008	-0.000000	0.000000	0.000000
68.435038	23.239459	11.910058	-0.017561	0.264846	2.843350	0.000000	0.007797	0.000000	-0.000008	-0.000000	0.000000	0.000000
68.768372	23.255949	11.743478	-0.031908	0.234895	2.845949	0.000000	0.007797	0.000000	-0.000008	-0.000000	0.000000	0.000000
69.101705	23.282004	11.596865	-0.046256	0.204944	2.848548	0.000000	0.007797	0.000000	-0.000009	-0.000000	0.000000	0.000000
69.436288	23.317775	11.469782	-0.060658	0.174881	2.851157	0.000000	0.007797	0.000000	-0.000009	-0.000000	0.000000	0.000000
69.733611	23.357650	11.373732	-0.134489	0.177886	2.853475	0.000000	0.015253	0.000000	-0.000009	-0.000000	0.000000	0.000000
70.282671	23.104187	11.406118	0.593388	-0.237217	2.838667	0.000000	-0.069113	0.000000	-0.000009	0.000000	0.000000	0.000000
