#ParticleID	Turn	x[m]	xp	y[m]	yp	z[m]	dE[GeV]# s	beta_x	beta_y	alpha_x	alpha_y	D_x	D_y	D_px	D_py	orbit_x	orbit_px	orbit_y	orbit_py
0.300000	11.808448	25.040597	-0.010456	-0.027040	2.618124	0.000000	0.000008	0.000000	-0.000001	0.000002	0.000000	0.000000
0.601250	11.822434	25.060515	-0.035970	-0.039079	2.618126	0.000000	0.000008	0.000000	-0.000000	0.000002	0.000000	0.000000
0.898573	11.851311	25.087286	-0.032089	-0.112483	2.618127	0.000000	-0.006412	0.000000	0.000000	0.000002	0.000000	0.000000
1.339533	12.031675	24.908189	-0.378489	0.517090	2.631593	0.000000	0.067545	0.000000	0.000001	0.000002	0.000000	0.000000
1.780493	12.523979	24.182153	-0.742182	1.123135	2.677809	0.000000	0.142272	0.000000	0.000002	0.000002	0.000000	0.000000
2.221453	13.350714	22.942211	-1.139782	1.678079	2.757302	0.000000	0.218620	0.000000	0.000002	0.000002	0.000000	0.000000
2.662413	14.549651	21.244781	-1.589457	2.156671	2.870977	0.000000	0.297457	0.000000	0.000003	0.000002	0.000000	0.000000
3.108373	16.196295	19.142201	-2.116035	2.538270	3.021992	0.000000	0.380171	0.000000	0.000004	0.000002	0.000000	0.000000
3.657433	18.307863	16.780661	-1.706984	1.788178	3.205456	0.000000	0.287133	0.000000	0.000005	0.000002	0.000000	0.000000
4.206493	19.900972	15.168455	-1.177360	1.165455	3.336361	0.000000	0.189003	0.000000	0.000006	0.000001	0.000000	0.000000
4.755553	20.863093	14.190750	-0.564573	0.625745	3.412386	0.000000	0.087519	0.000000	0.000006	0.000001	0.000000	0.000000
5.304613	21.126267	13.777906	0.088093	0.130605	3.432182	0.000000	-0.015516	0.000000	0.000007	0.000001	0.000000	0.000000
5.603185	21.110847	13.685070	0.018749	0.144330	3.430226	0.000000	-0.006549	0.000000	0.000007	0.000001	0.000000	0.000000
5.936519	21.103612	13.597139	0.002954	0.119465	3.428042	0.000000	-0.006549	0.000000	0.000008	0.000001	0.000000	0.000000
6.269852	21.106908	13.525784	-0.012841	0.094600	3.425859	0.000000	-0.006549	0.000000	0.000008	0.000001	0.000000	0.000000
6.604435	21.120805	13.470831	-0.028696	0.069642	3.423667	0.000000	-0.006549	0.000000	0.000008	0.000001	0.000000	0.000000
6.901758	21.142058	13.436013	-0.098021	0.082567	3.421720	0.000000	0.002390	0.000000	0.000009	0.000001	0.000000	0.000000
7.450818	20.889394	13.606249	0.555473	-0.394448	3.394830	0.000000	-0.100191	0.000000	0.000009	0.000001	0.000000	0.000000
7.999878	19.936514	14.312567	1.169730	-0.899558	3.312023	0.000000	-0.200996	0.000000	0.000010	0.000001	0.000000	0.000000
8.548938	18.350724	15.605275	1.701363	-1.468742	3.174767	0.000000	-0.298236	0.000000	0.000010	0.000000	0.000000	0.000000
9.097998	16.244037	17.576451	2.112821	-2.142541	2.985496	0.000000	-0.390185	0.000000	0.000010	-0.000000	0.000000	0.000000
9.543958	14.600469	19.332849	1.585741	-1.779275	2.829796	0.000000	-0.308478	0.000000	0.000010	0.000000	0.000000	0.000000
9.984918	13.405092	20.711936	1.135394	-1.336289	2.711016	0.000000	-0.230768	0.000000	0.000010	0.000000	0.000000	0.000000
10.425878	12.582597	21.671940	0.736921	-0.832503	2.625891	0.000000	-0.155687	0.000000	0.000010	0.000001	0.000000	0.000000
10.866838	12.095404	22.169182	0.372115	-0.290839	2.573452	0.000000	-0.082378	0.000000	0.000011	0.000001	0.000000	0.000000
11.309048	11.921124	22.180512	0.053436	0.209610	2.553081	0.000000	-0.016269	0.000000	0.000011	0.000001	0.000000	0.000000
11.606371	11.896785	22.060029	0.028424	0.195617	2.548243	0.000000	-0.016269	0.000000	0.000011	0.000001	0.000000	0.000000
12.086371	11.888880	21.883081	-0.011955	0.173025	2.540434	0.000000	-0.016269	0.000000	0.000012	0.000001	0.000000	0.000000
12.566371	11.919739	21.727821	-0.052335	0.150434	2.532624	0.000000	-0.016269	0.000000	0.000013	0.000001	0.000000	0.000000
13.046371	11.989363	21.594248	-0.092715	0.127842	2.524815	0.000000	-0.016269	0.000000	0.000013	0.000001	0.000000	0.000000
13.526371	12.097751	21.482363	-0.133094	0.105251	2.517005	0.000000	-0.016269	0.000000	0.000014	0.000001	0.000000	0.000000
14.007621	12.245338	21.391960	-0.173579	0.082601	2.509175	0.000000	-0.016269	0.000000	0.000014	0.000001	0.000000	0.000000
14.304943	12.355993	21.347002	-0.168295	0.016265	2.504338	0.000000	-0.022409	0.000000	0.000015	0.000001	0.000000	0.000000
14.745903	12.662915	21.099025	-0.530377	0.543952	2.510088	0.000000	0.048515	0.000000	0.000015	0.000002	0.000000	0.000000
15.186863	13.298603	20.394847	-0.916691	1.046890	2.547204	0.000000	0.119993	0.000000	0.000016	0.000002	0.000000	0.000000
15.627823	14.292100	19.266509	-1.344886	1.502195	2.616111	0.000000	0.192837	0.000000	0.000017	0.000002	0.000000	0.000000
16.068783	15.688795	17.765348	-1.834525	1.889151	2.717591	0.000000	0.267877	0.000000	0.000018	0.000003	0.000000	0.000000
16.514743	17.576159	15.938166	-2.412736	2.190895	2.854496	0.000000	0.346430	0.000000	0.000019	0.000003	0.000000	0.000000
17.063803	20.000280	13.897990	-1.976163	1.546797	3.020975	0.000000	0.259094	0.000000	0.000021	0.000003	0.000000	0.000000
17.612863	21.865038	12.500824	-1.400004	1.012873	3.138167	0.000000	0.167163	0.000000	0.000022	0.000002	0.000000	0.000000
18.161923	23.038716	11.647151	-0.724955	0.551095	3.203993	0.000000	0.072267	0.000000	0.000023	0.000001	0.000000	0.000000
18.710983	23.438412	11.276164	0.001301	0.128569	3.217287	0.000000	-0.023912	0.000000	0.000023	0.000000	0.000000	0.000000
19.009556	23.478014	11.189903	-0.072711	0.130886	3.212657	0.000000	-0.015507	0.000000	0.000024	0.000000	0.000000	0.000000
19.342889	23.531246	11.112745	-0.086984	0.100587	3.207488	0.000000	-0.015507	0.000000	0.000024	0.000000	0.000000	0.000000
19.676223	23.593993	11.055787	-0.101257	0.070288	3.202319	0.000000	-0.015507	0.000000	0.000024	0.000000	0.000000	0.000000
20.010806	23.666837	11.018791	-0.232842	0.094469	3.197150	0.000000	0.000334	0.000000	0.000024	0.000001	0.000000	0.000000
20.308129	23.809233	10.970710	-0.308282	0.095904	3.197249	0.000000	0.008686	0.000000	0.000024	0.000001	0.000000	0.000000
20.857189	23.737108	11.087400	0.438866	-0.309685	3.175797	0.000000	-0.086711	0.000000	0.000024	-0.000000	0.000000	0.000000
21.406249	22.856759	11.658902	1.155015	-0.737333	3.102312	0.000000	-0.180570	0.000000	0.000024	-0.000001	0.000000	0.000000
21.955309	21.230371	12.725924	1.789580	-1.217499	2.978099	0.000000	-0.271226	0.000000	0.000023	-0.000002	0.000000	0.000000
22.504369	18.972824	14.364467	2.297737	-1.784385	2.805359	0.000000	-0.357071	0.000000	0.000022	-0.000002	0.000000	0.000000
22.950329	17.193606	15.835644	1.705979	-1.500597	2.663415	0.000000	-0.279858	0.000000	0.000021	-0.000002	0.000000	0.000000
23.391289	15.918407	17.008644	1.196860	-1.149385	2.556332	0.000000	-0.206286	0.000000	0.000021	-0.000001	0.000000	0.000000
23.832249	15.066493	17.847572	0.742421	-0.745878	2.481143	0.000000	-0.135064	0.000000	0.000020	-0.000001	0.000000	0.000000
24.273209	14.598943	18.314257	0.321902	-0.308434	2.436991	0.000000	-0.065381	0.000000	0.000020	-0.000000	0.000000	0.000000
24.715418	14.494516	18.387221	-0.048460	0.097893	2.423371	0.000000	-0.002384	0.000000	0.000020	0.000000	0.000000	0.000000
25.012741	14.529446	18.333864	-0.069021	0.081568	2.422662	0.000000	-0.002384	0.000000	0.000020	0.000000	0.000000	0.000000
25.346075	14.583143	18.285586	-0.092072	0.063265	2.421867	0.000000	-0.002384	0.000000	0.000020	0.000000	0.000000	0.000000
25.679408	14.652208	18.249510	-0.115123	0.044963	2.421073	0.000000	-0.002384	0.000000	0.000020	0.000000	0.000000	0.000000
26.013991	14.736687	18.225938	-0.018707	-0.121266	2.420250	0.000000	-0.022018	0.000000	0.000020	0.000000	0.000000	0.000000
26.311314	14.753812	18.302970	-0.002716	-0.182694	2.413704	0.000000	-0.027936	0.000000	0.000020	-0.000000	0.000000	0.000000
26.752274	14.937970	18.265611	-0.416498	0.267093	2.416496	0.000000	0.040614	0.000000	0.000020	0.000001	0.000000	0.000000
27.193234	15.494031	17.835440	-0.849309	0.704728	2.449589	0.000000	0.109626	0.000000	0.000021	0.000001	0.000000	0.000000
27.634194	16.447400	17.032028	-1.320922	1.110299	2.513360	0.000000	0.179888	0.000000	0.000021	0.000002	0.000000	0.000000
28.075154	17.841633	15.891930	-1.852884	1.465351	2.608535	0.000000	0.252198	0.000000	0.000022	0.000002	0.000000	0.000000
28.521114	19.764648	14.449845	-2.474470	1.754644	2.737801	0.000000	0.327823	0.000000	0.000023	0.000003	0.000000	0.000000
29.070174	22.208810	12.843137	-1.950714	1.188916	2.895129	0.000000	0.244417	0.000000	0.000025	0.000002	0.000000	0.000000
29.619234	23.998294	11.807798	-1.289168	0.707872	3.005402	0.000000	0.156675	0.000000	0.000025	0.000001	0.000000	0.000000
30.168294	25.006699	11.270081	-0.536563	0.277249	3.066665	0.000000	0.066154	0.000000	0.000026	0.000000	0.000000	0.000000
30.717354	25.162798	11.191686	0.253943	-0.133627	3.077832	0.000000	-0.025540	0.000000	0.000026	-0.000001	0.000000	0.000000
31.015927	25.054077	11.262075	0.175926	-0.131360	3.072607	0.000000	-0.017500	0.000000	0.000026	-0.000000	0.000000	0.000000
31.349260	24.941365	11.359685	0.162209	-0.161469	3.066774	0.000000	-0.017500	0.000000	0.000026	-0.000000	0.000000	0.000000
31.682593	24.837798	11.477366	0.148493	-0.191577	3.060941	0.000000	-0.017500	0.000000	0.000025	-0.000000	0.000000	0.000000
32.017177	24.743038	11.615675	0.134725	-0.221799	3.055086	0.000000	-0.017500	0.000000	0.000025	-0.000000	0.000000	0.000000
32.314499	24.666561	11.755551	0.058055	-0.217946	3.049883	0.000000	-0.009533	0.000000	0.000025	-0.000000	0.000000	0.000000
32.863559	24.180171	12.234066	0.822559	-0.658715	3.019765	0.000000	-0.100014	0.000000	0.000025	-0.000001	0.000000	0.000000
33.412619	22.881356	13.219369	1.528962	-1.146403	2.940382	0.000000	-0.188722	0.000000	0.000024	-0.000002	0.000000	0.000000
33.961679	20.861857	14.781639	2.127366	-1.715746	2.813143	0.000000	-0.274082	0.000000	0.000023	-0.000003	0.000000	0.000000
34.510739	18.264321	17.032154	2.575503	-2.407299	2.640303	0.000000	-0.354581	0.000000	0.000021	-0.000003	0.000000	0.000000
34.956699	16.244594	19.045180	1.969664	-2.087770	2.498518	0.000000	-0.281647	0.000000	0.000019	-0.000003	0.000000	0.000000
35.397659	14.738479	20.710304	1.458829	-1.673994	2.389707	0.000000	-0.212349	0.000000	0.000018	-0.000002	0.000000	0.000000
35.838619	13.651897	21.975403	1.014645	-1.184052	2.310891	0.000000	-0.145469	0.000000	0.000017	-0.000002	0.000000	0.000000
36.279579	12.935206	22.782915	0.616817	-0.640237	2.261173	0.000000	-0.080246	0.000000	0.000017	-0.000002	0.000000	0.000000
36.721789	12.554967	23.096408	0.277848	-0.123976	2.239961	0.000000	-0.021430	0.000000	0.000016	-0.000001	0.000000	0.000000
37.019112	12.397330	23.174016	0.252338	-0.137047	2.233589	0.000000	-0.021430	0.000000	0.000016	-0.000001	0.000000	0.000000
37.352445	12.238638	23.270266	0.223739	-0.151701	2.226447	0.000000	-0.021430	0.000000	0.000015	-0.000001	0.000000	0.000000
37.685779	12.099012	23.376285	0.195139	-0.166355	2.219304	0.000000	-0.021430	0.000000	0.000015	-0.000001	0.000000	0.000000
38.020362	11.978037	23.492525	0.166432	-0.181064	2.212134	0.000000	-0.021430	0.000000	0.000014	-0.000001	0.000000	0.000000
38.317684	11.886653	23.604081	0.170068	-0.252012	2.205763	0.000000	-0.026838	0.000000	0.000014	-0.000001	0.000000	0.000000
38.758644	11.888189	23.564882	-0.173564	0.340567	2.207856	0.000000	0.036342	0.000000	0.000014	-0.000001	0.000000	0.000000
39.199604	12.195119	23.007939	-0.525127	0.917651	2.237875	0.000000	0.099936	0.000000	0.000013	-0.000000	0.000000	0.000000
39.640564	12.821467	21.958591	-0.900680	1.452983	2.296160	0.000000	0.164669	0.000000	0.000013	-0.000000	0.000000	0.000000
40.081524	13.795848	20.464583	-1.317384	1.922204	2.383375	0.000000	0.231277	0.000000	0.000013	0.000000	0.000000	0.000000
40.527484	15.180357	18.571315	-1.798102	2.305253	2.501986	0.000000	0.300924	0.000000	0.000014	0.000001	0.000000	0.000000
41.076544	16.947075	16.443713	-1.400562	1.592610	2.646680	0.000000	0.225363	0.000000	0.000014	0.000000	0.000000	0.000000
41.625604	18.220005	15.032168	-0.904094	0.993404	2.748727	0.000000	0.145805	0.000000	0.000014	-0.000000	0.000000	0.000000
42.174664	18.909234	14.236139	-0.343764	0.464957	2.806317	0.000000	0.063660	0.000000	0.000013	-0.000001	0.000000	0.000000
42.723724	18.966078	13.998926	0.240847	-0.030373	2.818427	0.000000	-0.019614	0.000000	0.000013	-0.000001	0.000000	0.000000
43.022297	18.856718	14.001592	0.174979	-0.015129	2.814770	0.000000	-0.012250	0.000000	0.000012	-0.000001	0.000000	0.000000
43.502297	18.701331	14.032575	0.148744	-0.049419	2.808890	0.000000	-0.012250	0.000000	0.000012	-0.000001	0.000000	0.000000
43.982297	18.571129	14.096476	0.122510	-0.083708	2.803011	0.000000	-0.012250	0.000000	0.000011	-0.000001	0.000000	0.000000
44.462297	18.466113	14.193295	0.096275	-0.117998	2.797131	0.000000	-0.012250	0.000000	0.000011	-0.000001	0.000000	0.000000
44.942297	18.386281	14.323032	0.070041	-0.152288	2.791251	0.000000	-0.012250	0.000000	0.000010	-0.000001	0.000000	0.000000
45.423547	18.331752	14.485974	-0.047088	-0.114894	2.785373	0.000000	0.001550	0.000000	0.000010	-0.000001	0.000000	0.000000
45.720870	18.364586	14.560478	-0.111322	-0.097649	2.785835	0.000000	0.008828	0.000000	0.000009	-0.000001	0.000000	0.000000
46.269930	18.177612	14.949280	0.449840	-0.614654	2.768110	0.000000	-0.073299	0.000000	0.000009	-0.000001	0.000000	0.000000
46.818990	17.388295	15.926382	0.979228	-1.175440	2.705584	0.000000	-0.154125	0.000000	0.000008	-0.000002	0.000000	0.000000
47.368050	16.052388	17.561380	1.439448	-1.819949	2.599366	0.000000	-0.232218	0.000000	0.000007	-0.000002	0.000000	0.000000
47.917110	14.264253	19.970730	1.797993	-2.594090	2.451339	0.000000	-0.306192	0.000000	0.000006	-0.000002	0.000000	0.000000
48.363070	12.872794	22.112797	1.333205	-2.188988	2.330083	0.000000	-0.237893	0.000000	0.000005	-0.000002	0.000000	0.000000
48.804030	11.877221	23.827847	0.933099	-1.685565	2.239642	0.000000	-0.172701	0.000000	0.000004	-0.000002	0.000000	0.000000
49.244990	11.214449	25.063274	0.575623	-1.105450	2.177488	0.000000	-0.109475	0.000000	0.000003	-0.000002	0.000000	0.000000
49.685950	10.854199	25.762868	0.244445	-0.475038	2.142912	0.000000	-0.047496	0.000000	0.000003	-0.000002	0.000000	0.000000
50.128160	10.780133	25.894515	-0.049245	0.113440	2.135533	0.000000	0.008705	0.000000	0.000002	-0.000002	0.000000	0.000000
50.425482	10.817637	25.830516	-0.076893	0.101810	2.138121	0.000000	0.008705	0.000000	0.000001	-0.000002	0.000000	0.000000
50.758816	10.879231	25.766989	-0.107889	0.088771	2.141023	0.000000	0.008705	0.000000	0.000001	-0.000002	0.000000	0.000000
51.092149	10.961489	25.712154	-0.138885	0.075733	2.143926	0.000000	0.008705	0.000000	0.000000	-0.000002	0.000000	0.000000
51.426732	11.064612	25.666375	-0.080234	-0.145572	2.146817	0.000000	-0.008711	0.000000	-0.000000	-0.000002	0.000000	0.000000
51.724055	11.120363	25.756456	-0.080008	-0.220565	2.144227	0.000000	-0.013970	0.000000	-0.000001	-0.000002	0.000000	0.000000
52.165015	11.336139	25.664411	-0.411180	0.428509	2.151656	0.000000	0.047693	0.000000	-0.000001	-0.000002	0.000000	0.000000
52.605975	11.851129	25.006378	-0.761137	1.058087	2.186370	0.000000	0.109899	0.000000	-0.000002	-0.000002	0.000000	0.000000
53.046935	12.688864	23.812296	-1.145868	1.639522	2.248763	0.000000	0.173357	0.000000	-0.000003	-0.000002	0.000000	0.000000
53.487895	13.887616	22.136497	-1.582951	2.146361	2.339547	0.000000	0.238789	0.000000	-0.000004	-0.000002	0.000000	0.000000
53.933855	15.522704	20.030171	-2.096580	2.556880	2.461261	0.000000	0.307339	0.000000	-0.000004	-0.000002	0.000000	0.000000
54.482915	17.627869	17.659974	-1.714849	1.785429	2.609830	0.000000	0.233035	0.000000	-0.000005	-0.000002	0.000000	0.000000
55.031975	19.244449	16.062535	-1.211991	1.141151	2.716404	0.000000	0.154597	0.000000	-0.000006	-0.000002	0.000000	0.000000
55.581035	20.258256	15.124073	-0.623523	0.578154	2.779094	0.000000	0.073417	0.000000	-0.000007	-0.000001	0.000000	0.000000
56.130095	20.597682	14.777743	0.008987	0.056338	2.796787	0.000000	-0.009065	0.000000	-0.000008	-0.000001	0.000000	0.000000
56.428668	20.628791	14.727129	-0.059359	0.074566	2.796263	0.000000	-0.001757	0.000000	-0.000008	-0.000001	0.000000	0.000000
56.762001	20.673769	14.685005	-0.075574	0.051806	2.795678	0.000000	-0.001757	0.000000	-0.000008	-0.000001	0.000000	0.000000
57.095334	20.729557	14.658054	-0.091790	0.029046	2.795093	0.000000	-0.001757	0.000000	-0.000009	-0.000001	0.000000	0.000000
57.429918	20.796425	14.646261	-0.108066	0.006201	2.794505	0.000000	-0.001757	0.000000	-0.000009	-0.000001	0.000000	0.000000
57.727240	20.864987	14.648610	-0.177051	0.024177	2.793983	0.000000	0.005544	0.000000	-0.000010	-0.000001	0.000000	0.000000
58.276300	20.703477	14.903306	0.469466	-0.490793	2.774389	0.000000	-0.076817	0.000000	-0.000010	-0.000001	0.000000	0.000000
58.825360	19.846103	15.739265	1.082821	-1.040721	2.709881	0.000000	-0.157815	0.000000	-0.000010	-0.000000	0.000000	0.000000
59.374420	18.353425	17.216029	1.619692	-1.664778	2.601604	0.000000	-0.236013	0.000000	-0.000011	-0.000000	0.000000	0.000000
59.923480	16.330879	19.438785	2.042155	-2.407413	2.451479	0.000000	-0.310026	0.000000	-0.000011	0.000000	0.000000	0.000000
60.369440	14.747886	21.414357	1.520045	-2.003818	2.328510	0.000000	-0.241745	0.000000	-0.000011	-0.000000	0.000000	0.000000
60.810400	13.609402	22.969919	1.071581	-1.510428	2.236357	0.000000	-0.176615	0.000000	-0.000011	-0.000000	0.000000	0.000000
61.251360	12.843426	24.058268	0.672074	-0.948315	2.172454	0.000000	-0.113497	0.000000	-0.000011	-0.000001	0.000000	0.000000
61.692320	12.414962	24.629885	0.303273	-0.343054	2.136073	0.000000	-0.051671	0.000000	-0.000011	-0.000001	0.000000	0.000000
62.134530	12.304489	24.658220	-0.021596	0.217285	2.126804	0.000000	0.004350	0.000000	-0.000012	-0.000001	0.000000	0.000000
62.431853	12.324519	24.532766	-0.045771	0.204658	2.128098	0.000000	0.004350	0.000000	-0.000012	-0.000001	0.000000	0.000000
62.765186	12.364068	24.401047	-0.072874	0.190502	2.129548	0.000000	0.004350	0.000000	-0.000012	-0.000001	0.000000	0.000000
63.098520	12.421685	24.278764	-0.099977	0.176345	2.130998	0.000000	0.004350	0.000000	-0.000013	-0.000001	0.000000	0.000000
63.433103	12.497689	24.165514	-0.127182	0.162136	2.132454	0.000000	0.004350	0.000000	-0.000013	-0.000001	0.000000	0.000000
63.730426	12.580505	24.072855	-0.120502	0.090467	2.133748	0.000000	-0.000883	0.000000	-0.000014	-0.000001	0.000000	0.000000
64.171386	12.847017	23.727965	-0.486182	0.688691	2.146898	0.000000	0.060583	0.000000	-0.000014	-0.000002	0.000000	0.000000
64.612346	13.444569	22.867345	-0.874075	1.255580	2.187280	0.000000	0.122739	0.000000	-0.000015	-0.000002	0.000000	0.000000
65.053306	14.400461	21.530151	-1.301902	1.765341	2.255351	0.000000	0.186294	0.000000	-0.000016	-0.000002	0.000000	0.000000
65.494266	15.758365	19.777226	-1.789209	2.194781	2.351889	0.000000	0.251970	0.000000	-0.000017	-0.000003	0.000000	0.000000
65.940226	17.603480	17.663526	-2.362950	2.525111	2.479564	0.000000	0.320917	0.000000	-0.000018	-0.000003	0.000000	0.000000
66.489286	19.968861	15.299003	-1.919607	1.806803	2.635404	0.000000	0.245902	0.000000	-0.000020	-0.000003	0.000000	0.000000
67.038346	21.769610	13.648394	-1.340674	1.217189	2.748795	0.000000	0.166526	0.000000	-0.000021	-0.000002	0.000000	0.000000
67.587406	22.878529	12.594128	-0.667041	0.714274	2.817728	0.000000	0.084195	0.000000	-0.000022	-0.000001	0.000000	0.000000
68.136466	23.217291	12.061113	0.053707	0.262234	2.840979	0.000000	0.000371	0.000000	-0.000022	-0.000000	0.000000	0.000000
68.435038	23.225291	11.893728	-0.019827	0.266862	2.843306	0.000000	0.007795	0.000000	-0.000023	-0.000001	0.000000	0.000000
68.768372	23.243295	11.725827	-0.034185	0.236840	2.845905	0.000000	0.007795	0.000000	-0.000023	-0.000001	0.000000	0.000000
69.101705	23.270870	11.577941	-0.048543	0.206819	2.848504	0.000000	0.007795	0.000000	-0.000023	-0.000001	0.000000	0.000000
69.436288	23.308175	11.449627	-0.062954	0.176684	2.851112	0.000000	0.007795	0.000000	-0.000023	-0.000001	0.000000	0.000000
69.733611	23.349418	11.352525	-0.136781	0.179573	2.853430	0.000000	0.015252	0.000000	-0.000023	-0.000001	0.000000	0.000000
70.282671	23.098600	11.382725	0.590891	-0.234901	2.838622	0.000000	-0.069112	0.000000	-0.000023	0.000000	0.000000	0.000000
