#ParticleID	Turn	x[m]	xp	y[m]	yp	z[m]	dE[GeV]# s	beta_x	beta_y	alpha_x	alpha_y	D_x	D_y	D_px	D_py	orbit_x	orbit_px	orbit_y	orbit_py
0.300000	11.805159	25.053088	-0.010175	-0.026873	2.618221	0.000000	-0.000028	0.000000	-0.000001	0.000002	0.000000	0.000000
0.601250	11.818977	25.072905	-0.035696	-0.038907	2.618212	0.000000	-0.000028	0.000000	-0.000001	0.000002	0.000000	0.000000
0.898573	11.847692	25.099571	-0.031830	-0.112334	2.618203	0.000000	-0.006449	0.000000	-0.000000	0.000002	0.000000	0.000000
1.339533	12.027790	24.920200	-0.378141	0.517560	2.631652	0.000000	0.067510	0.000000	0.000001	0.000002	0.000000	0.000000
1.780493	12.519742	24.193615	-0.741729	1.123905	2.677853	0.000000	0.142239	0.000000	0.000001	0.000002	0.000000	0.000000
2.221453	13.346024	22.952874	-1.139204	1.679114	2.757331	0.000000	0.218587	0.000000	0.000002	0.000002	0.000000	0.000000
2.662413	14.544386	21.254430	-1.588726	2.157924	2.870992	0.000000	0.297425	0.000000	0.000003	0.000002	0.000000	0.000000
3.108373	16.190298	19.150656	-2.115117	2.539684	3.021992	0.000000	0.380139	0.000000	0.000004	0.000002	0.000000	0.000000
3.657433	18.300940	16.787756	-1.706228	1.789255	3.205439	0.000000	0.287102	0.000000	0.000005	0.000002	0.000000	0.000000
4.206493	19.893333	15.174519	-1.176819	1.166270	3.336327	0.000000	0.188972	0.000000	0.000006	0.000002	0.000000	0.000000
4.755553	20.854997	14.196036	-0.564286	0.626355	3.412335	0.000000	0.087490	0.000000	0.000007	0.000001	0.000000	0.000000
5.304613	21.118006	13.782612	0.088106	0.131055	3.432114	0.000000	-0.015544	0.000000	0.000007	0.000001	0.000000	0.000000
5.603185	21.102566	13.689499	0.018779	0.144796	3.430150	0.000000	-0.006577	0.000000	0.000008	0.000001	0.000000	0.000000
5.936519	21.095314	13.601255	0.002977	0.119936	3.427958	0.000000	-0.006577	0.000000	0.000008	0.000001	0.000000	0.000000
6.269852	21.098596	13.529584	-0.012824	0.095076	3.425765	0.000000	-0.006577	0.000000	0.000009	0.000001	0.000000	0.000000
6.604435	21.112485	13.474311	-0.028685	0.070123	3.423564	0.000000	-0.006577	0.000000	0.000009	0.000001	0.000000	0.000000
6.901758	21.133732	13.439206	-0.097993	0.083060	3.421608	0.000000	0.002362	0.000000	0.000009	0.000001	0.000000	0.000000
7.450818	20.881192	13.608947	0.555223	-0.394034	3.394704	0.000000	-0.100216	0.000000	0.000010	0.000001	0.000000	0.000000
7.999878	19.928731	14.314842	1.169220	-0.899195	3.311884	0.000000	-0.201016	0.000000	0.000010	0.000001	0.000000	0.000000
8.548938	18.343627	15.607168	1.700630	-1.468404	3.174618	0.000000	-0.298251	0.000000	0.000011	0.000000	0.000000	0.000000
9.097998	16.237845	17.577975	2.111916	-2.142204	2.985340	0.000000	-0.390196	0.000000	0.000011	-0.000000	0.000000	0.000000
9.543958	14.594997	19.334035	1.585025	-1.778858	2.829635	0.000000	-0.308493	0.000000	0.000011	0.000000	0.000000	0.000000
9.984918	13.400181	20.712726	1.134834	-1.335812	2.710847	0.000000	-0.230787	0.000000	0.000011	0.000000	0.000000	0.000000
10.425878	12.578121	21.672290	0.736489	-0.831987	2.625713	0.000000	-0.155710	0.000000	0.000011	0.000001	0.000000	0.000000
10.866838	12.091260	22.169068	0.371793	-0.290308	2.573263	0.000000	-0.082406	0.000000	0.000012	0.000001	0.000000	0.000000
11.309048	11.917221	22.179930	0.053199	0.210135	2.552878	0.000000	-0.016301	0.000000	0.000012	0.000001	0.000000	0.000000
11.606371	11.893026	22.059136	0.028180	0.196138	2.548031	0.000000	-0.016301	0.000000	0.000013	0.000001	0.000000	0.000000
12.086371	11.885361	21.881690	-0.012212	0.173541	2.540206	0.000000	-0.016301	0.000000	0.000013	0.000001	0.000000	0.000000
12.566371	11.916473	21.725938	-0.052604	0.150944	2.532381	0.000000	-0.016301	0.000000	0.000014	0.000001	0.000000	0.000000
13.046371	11.986361	21.591878	-0.092996	0.128347	2.524555	0.000000	-0.016301	0.000000	0.000014	0.000001	0.000000	0.000000
13.526371	12.095025	21.479511	-0.133388	0.105751	2.516730	0.000000	-0.016301	0.000000	0.000015	0.000001	0.000000	0.000000
14.007621	12.242900	21.388629	-0.173885	0.083095	2.508885	0.000000	-0.016301	0.000000	0.000016	0.000001	0.000000	0.000000
14.304943	12.353738	21.343379	-0.168614	0.016766	2.504037	0.000000	-0.022441	0.000000	0.000016	0.000001	0.000000	0.000000
14.745903	12.660923	21.095006	-0.530656	0.544345	2.509771	0.000000	0.048476	0.000000	0.000017	0.000002	0.000000	0.000000
15.186863	13.296844	20.390537	-0.916942	1.047156	2.546869	0.000000	0.119945	0.000000	0.000018	0.000002	0.000000	0.000000
15.627823	14.290553	19.262024	-1.345120	1.502323	2.615752	0.000000	0.192780	0.000000	0.000019	0.000003	0.000000	0.000000
16.068783	15.687452	17.760814	-1.834753	1.889135	2.717205	0.000000	0.267810	0.000000	0.000020	0.000003	0.000000	0.000000
16.514743	17.575021	15.933710	-2.412970	2.190735	2.854078	0.000000	0.346353	0.000000	0.000022	0.000004	0.000000	0.000000
17.063803	19.999442	13.893652	-1.976473	1.546744	3.020518	0.000000	0.259032	0.000000	0.000023	0.000003	0.000000	0.000000
17.612863	21.864572	12.496487	-1.400368	1.012924	3.137679	0.000000	0.167116	0.000000	0.000025	0.000002	0.000000	0.000000
18.161923	23.038669	11.642699	-0.725348	0.551253	3.203484	0.000000	0.072235	0.000000	0.000026	0.000001	0.000000	0.000000
18.710983	23.438800	11.271475	0.000907	0.128846	3.216765	0.000000	-0.023926	0.000000	0.000026	0.000001	0.000000	0.000000
19.009556	23.478637	11.185060	-0.073105	0.131137	3.212130	0.000000	-0.015523	0.000000	0.000026	0.000001	0.000000	0.000000
19.342889	23.532132	11.107740	-0.087379	0.100823	3.206956	0.000000	-0.015523	0.000000	0.000027	0.000001	0.000000	0.000000
19.676223	23.595142	11.050629	-0.101652	0.070509	3.201781	0.000000	-0.015523	0.000000	0.000027	0.000001	0.000000	0.000000
20.010806	23.668251	11.013491	-0.233244	0.094649	3.196607	0.000000	0.000315	0.000000	0.000027	0.000001	0.000000	0.000000
20.308129	23.810887	10.965307	-0.308689	0.096054	3.196700	0.000000	0.008665	0.000000	0.000027	0.000001	0.000000	0.000000
20.857189	23.739176	11.081749	0.438523	-0.309380	3.175242	0.000000	-0.086714	0.000000	0.000027	-0.000000	0.000000	0.000000
21.406249	22.859158	11.652821	1.154759	-0.736851	3.101761	0.000000	-0.180555	0.000000	0.000027	-0.000001	0.000000	0.000000
21.955309	21.232994	12.719202	1.789430	-1.216806	2.977560	0.000000	-0.271193	0.000000	0.000026	-0.000002	0.000000	0.000000
22.504369	18.975548	14.356847	2.297703	-1.783432	2.804843	0.000000	-0.357021	0.000000	0.000025	-0.000003	0.000000	0.000000
22.950329	17.196381	15.827252	1.705898	-1.499826	2.662919	0.000000	-0.279821	0.000000	0.000024	-0.000002	0.000000	0.000000
23.391289	15.921276	16.999666	1.196728	-1.148832	2.555850	0.000000	-0.206262	0.000000	0.000023	-0.000001	0.000000	0.000000
23.832249	15.069503	17.838211	0.742233	-0.745566	2.480669	0.000000	-0.135053	0.000000	0.000023	-0.000001	0.000000	0.000000
24.273209	14.602147	18.304733	0.321648	-0.308378	2.436519	0.000000	-0.065381	0.000000	0.000023	-0.000000	0.000000	0.000000
24.715418	14.497977	18.377763	-0.048782	0.097713	2.422896	0.000000	-0.002395	0.000000	0.000023	0.000000	0.000000	0.000000
25.012741	14.533098	18.324514	-0.069339	0.081381	2.422184	0.000000	-0.002395	0.000000	0.000023	0.000000	0.000000	0.000000
25.346075	14.587006	18.276364	-0.092386	0.063070	2.421385	0.000000	-0.002395	0.000000	0.000023	0.000000	0.000000	0.000000
25.679408	14.656278	18.240422	-0.115432	0.044758	2.420587	0.000000	-0.002395	0.000000	0.000023	0.000000	0.000000	0.000000
26.013991	14.740963	18.216990	-0.018977	-0.121406	2.419761	0.000000	-0.022026	0.000000	0.000023	0.000000	0.000000	0.000000
26.311314	14.758246	18.294108	-0.002970	-0.182821	2.413212	0.000000	-0.027942	0.000000	0.000023	0.000000	0.000000	0.000000
26.752274	14.942676	18.256966	-0.416864	0.266729	2.415999	0.000000	0.040595	0.000000	0.000023	0.000001	0.000000	0.000000
27.193234	15.499115	17.827215	-0.849803	0.704142	2.449081	0.000000	0.109595	0.000000	0.000023	0.000001	0.000000	0.000000
27.634194	16.452985	17.024408	-1.321568	1.109518	2.512835	0.000000	0.179843	0.000000	0.000024	0.000002	0.000000	0.000000
28.075154	17.847865	15.885072	-1.853711	1.464412	2.607987	0.000000	0.252139	0.000000	0.000025	0.000002	0.000000	0.000000
28.521114	19.771714	14.443881	-2.475518	1.753587	2.737224	0.000000	0.327750	0.000000	0.000026	0.000003	0.000000	0.000000
29.070174	22.216928	12.838198	-1.951571	1.188094	2.894516	0.000000	0.244363	0.000000	0.000028	0.000002	0.000000	0.000000
29.619234	24.007220	11.803659	-1.289774	0.707227	3.004765	0.000000	0.156641	0.000000	0.000029	0.000001	0.000000	0.000000
30.168294	25.016133	11.266576	-0.536875	0.276734	3.066016	0.000000	0.066142	0.000000	0.000029	0.000000	0.000000	0.000000
30.717354	25.172403	11.188693	0.253947	-0.134048	3.077181	0.000000	-0.025532	0.000000	0.000029	-0.000001	0.000000	0.000000
31.015927	25.063691	11.259341	0.175911	-0.131800	3.071958	0.000000	-0.017493	0.000000	0.000029	-0.000000	0.000000	0.000000
31.349260	24.950988	11.357248	0.162200	-0.161919	3.066127	0.000000	-0.017493	0.000000	0.000029	-0.000000	0.000000	0.000000
31.682593	24.847424	11.475234	0.148489	-0.192038	3.060296	0.000000	-0.017493	0.000000	0.000029	-0.000000	0.000000	0.000000
32.017177	24.752665	11.613854	0.134727	-0.222271	3.054443	0.000000	-0.017493	0.000000	0.000029	-0.000000	0.000000	0.000000
32.314499	24.676187	11.754014	0.058038	-0.218433	3.049242	0.000000	-0.009528	0.000000	0.000028	-0.000000	0.000000	0.000000
32.863559	24.189641	12.233052	0.822859	-0.659185	3.019132	0.000000	-0.099989	0.000000	0.000028	-0.000001	0.000000	0.000000
33.412619	22.890330	13.218877	1.529557	-1.146890	2.939769	0.000000	-0.188677	0.000000	0.000027	-0.000002	0.000000	0.000000
33.961679	20.870032	14.781708	2.128215	-1.716286	2.812560	0.000000	-0.274017	0.000000	0.000026	-0.000003	0.000000	0.000000
34.510739	18.271451	17.032862	2.576547	-2.407929	2.639761	0.000000	-0.354498	0.000000	0.000024	-0.000004	0.000000	0.000000
34.956699	16.250895	19.046469	1.970485	-2.088439	2.498010	0.000000	-0.281578	0.000000	0.000022	-0.000003	0.000000	0.000000
35.397659	14.744137	20.712189	1.459469	-1.674670	2.389226	0.000000	-0.212292	0.000000	0.000021	-0.000003	0.000000	0.000000
35.838619	13.657060	21.977875	1.015133	-1.184705	2.310433	0.000000	-0.145425	0.000000	0.000020	-0.000002	0.000000	0.000000
36.279579	12.939998	22.785941	0.617174	-0.640837	2.260732	0.000000	-0.080214	0.000000	0.000019	-0.000002	0.000000	0.000000
36.721789	12.559495	23.099932	0.278102	-0.124503	2.239531	0.000000	-0.021407	0.000000	0.000018	-0.000001	0.000000	0.000000
37.019112	12.401706	23.177853	0.252598	-0.137574	2.233167	0.000000	-0.021407	0.000000	0.000018	-0.000001	0.000000	0.000000
37.352445	12.242838	23.274453	0.224005	-0.152227	2.226031	0.000000	-0.021407	0.000000	0.000017	-0.000001	0.000000	0.000000
37.685779	12.103033	23.380823	0.195412	-0.166881	2.218896	0.000000	-0.021407	0.000000	0.000017	-0.000001	0.000000	0.000000
38.020362	11.981873	23.497415	0.166711	-0.181590	2.211734	0.000000	-0.021407	0.000000	0.000017	-0.000001	0.000000	0.000000
38.317684	11.890322	23.609283	0.170361	-0.252549	2.205369	0.000000	-0.026815	0.000000	0.000016	-0.000001	0.000000	0.000000
38.758644	11.891635	23.570495	-0.173352	0.340176	2.207472	0.000000	0.036356	0.000000	0.000016	-0.000001	0.000000	0.000000
39.199604	12.198409	23.013826	-0.524985	0.917423	2.237494	0.000000	0.099940	0.000000	0.000015	-0.000000	0.000000	0.000000
39.640564	12.824661	21.964603	-0.900603	1.452928	2.295778	0.000000	0.164663	0.000000	0.000015	-0.000000	0.000000	0.000000
40.081524	13.799000	20.470566	-1.317367	1.922325	2.382988	0.000000	0.231261	0.000000	0.000015	0.000000	0.000000	0.000000
40.527484	15.183521	18.577114	-1.798146	2.305546	2.501590	0.000000	0.300898	0.000000	0.000016	0.000001	0.000000	0.000000
41.076544	16.950216	16.449279	-1.400477	1.592742	2.646274	0.000000	0.225350	0.000000	0.000016	0.000000	0.000000	0.000000
41.625604	18.222984	15.037672	-0.903886	0.993386	2.748317	0.000000	0.145805	0.000000	0.000016	-0.000000	0.000000	0.000000
42.174664	18.911924	14.241746	-0.343449	0.464786	2.805910	0.000000	0.063674	0.000000	0.000016	-0.000001	0.000000	0.000000
42.723724	18.968372	14.004809	0.241248	-0.030707	2.818032	0.000000	-0.019587	0.000000	0.000015	-0.000001	0.000000	0.000000
43.022297	18.858776	14.007663	0.175375	-0.015440	2.814382	0.000000	-0.012225	0.000000	0.000015	-0.000001	0.000000	0.000000
43.502297	18.703009	14.038937	0.149139	-0.049715	2.808514	0.000000	-0.012225	0.000000	0.000014	-0.000001	0.000000	0.000000
43.982297	18.572428	14.103115	0.122904	-0.083990	2.802647	0.000000	-0.012225	0.000000	0.000013	-0.000001	0.000000	0.000000
44.462297	18.467033	14.200198	0.096669	-0.118265	2.796779	0.000000	-0.012225	0.000000	0.000013	-0.000001	0.000000	0.000000
44.942297	18.386823	14.330184	0.070434	-0.152540	2.790912	0.000000	-0.012225	0.000000	0.000012	-0.000001	0.000000	0.000000
45.423547	18.331916	14.493362	-0.046696	-0.115095	2.785046	0.000000	0.001574	0.000000	0.000011	-0.000001	0.000000	0.000000
45.720870	18.364516	14.567983	-0.110929	-0.097822	2.785515	0.000000	0.008851	0.000000	0.000011	-0.000001	0.000000	0.000000
46.269930	18.177115	14.957101	0.450220	-0.615059	2.767805	0.000000	-0.073266	0.000000	0.000010	-0.000002	0.000000	0.000000
46.818990	17.387401	15.934788	0.979567	-1.176106	2.705300	0.000000	-0.154083	0.000000	0.000009	-0.000002	0.000000	0.000000
47.368050	16.051155	17.570682	1.439723	-1.820925	2.599108	0.000000	-0.232167	0.000000	0.000008	-0.000002	0.000000	0.000000
47.917110	14.262762	19.981304	1.798184	-2.595443	2.451111	0.000000	-0.306133	0.000000	0.000007	-0.000002	0.000000	0.000000
48.363070	12.871130	22.124475	1.333404	-2.190102	2.329880	0.000000	-0.237840	0.000000	0.000006	-0.000002	0.000000	0.000000
48.804030	11.875375	23.840383	0.933315	-1.686389	2.239462	0.000000	-0.172652	0.000000	0.000005	-0.000002	0.000000	0.000000
49.244990	11.212401	25.076395	0.575865	-1.105947	2.177328	0.000000	-0.109431	0.000000	0.000004	-0.000002	0.000000	0.000000
49.685950	10.851921	25.776275	0.244726	-0.475185	2.142771	0.000000	-0.047456	0.000000	0.000003	-0.000002	0.000000	0.000000
50.128160	10.777585	25.907893	-0.048920	0.113616	2.135409	0.000000	0.008742	0.000000	0.000003	-0.000002	0.000000	0.000000
50.425482	10.814897	25.843788	-0.076573	0.101992	2.138009	0.000000	0.008742	0.000000	0.000002	-0.000002	0.000000	0.000000
50.758816	10.876280	25.780138	-0.107576	0.088960	2.140923	0.000000	0.008742	0.000000	0.000001	-0.000002	0.000000	0.000000
51.092149	10.958331	25.725176	-0.138578	0.075927	2.143838	0.000000	0.008742	0.000000	0.000001	-0.000002	0.000000	0.000000
51.426732	11.061250	25.679265	-0.079961	-0.145476	2.146741	0.000000	-0.008674	0.000000	0.000000	-0.000002	0.000000	0.000000
51.724055	11.116842	25.769287	-0.079750	-0.220494	2.144163	0.000000	-0.013932	0.000000	-0.000000	-0.000002	0.000000	0.000000
52.165015	11.332352	25.677030	-0.410835	0.428918	2.151609	0.000000	0.047730	0.000000	-0.000001	-0.000002	0.000000	0.000000
52.605975	11.846996	25.018494	-0.760691	1.058814	2.186338	0.000000	0.109934	0.000000	-0.000002	-0.000002	0.000000	0.000000
53.046935	12.684284	23.823642	-1.145299	1.640535	2.248747	0.000000	0.173392	0.000000	-0.000003	-0.000002	0.000000	0.000000
53.487895	13.882471	22.146839	-1.582234	2.147614	2.339547	0.000000	0.238823	0.000000	-0.000004	-0.000002	0.000000	0.000000
53.933855	15.516842	20.039309	-2.095680	2.558316	2.461276	0.000000	0.307374	0.000000	-0.000004	-0.000002	0.000000	0.000000
54.482915	17.621100	17.667738	-1.714108	1.786510	2.609863	0.000000	0.233069	0.000000	-0.000006	-0.000002	0.000000	0.000000
55.031975	19.236977	16.069271	-1.211460	1.141954	2.716456	0.000000	0.154630	0.000000	-0.000007	-0.000002	0.000000	0.000000
55.581035	20.250336	15.130054	-0.623241	0.578736	2.779164	0.000000	0.073448	0.000000	-0.000007	-0.000002	0.000000	0.000000
56.130095	20.589598	14.783187	0.009001	0.056740	2.796873	0.000000	-0.009037	0.000000	-0.000008	-0.000001	0.000000	0.000000
56.428668	20.620688	14.732323	-0.059330	0.074988	2.796358	0.000000	-0.001728	0.000000	-0.000009	-0.000001	0.000000	0.000000
56.762001	20.665649	14.689916	-0.075552	0.052235	2.795782	0.000000	-0.001728	0.000000	-0.000009	-0.000001	0.000000	0.000000
57.095334	20.721424	14.662677	-0.091774	0.029482	2.795206	0.000000	-0.001728	0.000000	-0.000009	-0.000001	0.000000	0.000000
57.429918	20.788284	14.650590	-0.108056	0.006643	2.794628	0.000000	-0.001728	0.000000	-0.000010	-0.000001	0.000000	0.000000
57.727240	20.856841	14.652674	-0.177025	0.024636	2.794115	0.000000	0.005573	0.000000	-0.000010	-0.000001	0.000000	0.000000
58.276300	20.695453	14.906929	0.469219	-0.490441	2.774535	0.000000	-0.076792	0.000000	-0.000011	-0.000001	0.000000	0.000000
58.825360	19.838492	15.742548	1.082321	-1.040451	2.710039	0.000000	-0.157795	0.000000	-0.000011	-0.000001	0.000000	0.000000
59.374420	18.346488	17.219051	1.618972	-1.664570	2.601772	0.000000	-0.235999	0.000000	-0.000011	-0.000000	0.000000	0.000000
59.923480	16.324829	19.441606	2.041268	-2.407252	2.451653	0.000000	-0.310017	0.000000	-0.000012	0.000000	0.000000	0.000000
60.369440	14.742543	21.416985	1.519342	-2.003549	2.328688	0.000000	-0.241732	0.000000	-0.000012	-0.000000	0.000000	0.000000
60.810400	13.604610	22.972265	1.071029	-1.510063	2.236542	0.000000	-0.176598	0.000000	-0.000012	-0.000000	0.000000	0.000000
61.251360	12.839063	24.060255	0.671649	-0.947870	2.172648	0.000000	-0.113474	0.000000	-0.000012	-0.000001	0.000000	0.000000
61.692320	12.410926	24.631452	0.302954	-0.342550	2.136278	0.000000	-0.051644	0.000000	-0.000012	-0.000001	0.000000	0.000000
62.134530	12.300694	24.659322	-0.021833	0.217822	2.127023	0.000000	0.004383	0.000000	-0.000013	-0.000001	0.000000	0.000000
62.431853	12.320866	24.533550	-0.046015	0.205193	2.128327	0.000000	0.004383	0.000000	-0.000013	-0.000001	0.000000	0.000000
62.765186	12.360581	24.401475	-0.073127	0.191034	2.129788	0.000000	0.004383	0.000000	-0.000014	-0.000001	0.000000	0.000000
63.098520	12.418369	24.278838	-0.100239	0.176875	2.131249	0.000000	0.004383	0.000000	-0.000014	-0.000001	0.000000	0.000000
63.433103	12.494551	24.165234	-0.127452	0.162663	2.132716	0.000000	0.004383	0.000000	-0.000015	-0.000001	0.000000	0.000000
63.730426	12.577529	24.072262	-0.120787	0.090993	2.134019	0.000000	-0.000851	0.000000	-0.000015	-0.000001	0.000000	0.000000
64.171386	12.844265	23.726920	-0.486407	0.689187	2.147186	0.000000	0.060622	0.000000	-0.000016	-0.000002	0.000000	0.000000
64.612346	13.441993	22.865883	-0.874250	1.256024	2.187586	0.000000	0.122786	0.000000	-0.000017	-0.000002	0.000000	0.000000
65.053306	14.398020	21.528328	-1.302035	1.765713	2.255680	0.000000	0.186349	0.000000	-0.000018	-0.000003	0.000000	0.000000
65.494266	15.756025	19.775113	-1.789306	2.195064	2.352244	0.000000	0.252034	0.000000	-0.000019	-0.000003	0.000000	0.000000
65.940226	17.601212	17.661205	-2.363016	2.525291	2.479950	0.000000	0.320991	0.000000	-0.000020	-0.000004	0.000000	0.000000
66.489286	19.966725	15.296473	-1.919780	1.807006	2.635826	0.000000	0.245963	0.000000	-0.000022	-0.000003	0.000000	0.000000
67.038346	21.767716	13.645622	-1.340939	1.217430	2.749248	0.000000	0.166572	0.000000	-0.000023	-0.000002	0.000000	0.000000
67.587406	22.876970	12.591063	-0.667382	0.714569	2.818202	0.000000	0.084226	0.000000	-0.000024	-0.000001	0.000000	0.000000
68.136466	23.216137	12.057685	0.053315	0.262605	2.841465	0.000000	0.000387	0.000000	-0.000025	-0.000001	0.000000	0.000000
68.435038	23.224370	11.890087	-0.020218	0.267212	2.843798	0.000000	0.007812	0.000000	-0.000025	-0.000001	0.000000	0.000000
68.768372	23.242635	11.721958	-0.034577	0.237176	2.846402	0.000000	0.007812	0.000000	-0.000025	-0.000001	0.000000	0.000000
69.101705	23.270472	11.573853	-0.048935	0.207140	2.849007	0.000000	0.007812	0.000000	-0.000026	-0.000001	0.000000	0.000000
69.436288	23.308040	11.445329	-0.063348	0.176991	2.851621	0.000000	0.007812	0.000000	-0.000026	-0.000001	0.000000	0.000000
69.733611	23.349517	11.348049	-0.137176	0.179856	2.853944	0.000000	0.015271	0.000000	-0.000026	-0.000001	0.000000	0.000000
70.282671	23.099128	11.377868	0.590510	-0.234487	2.839142	0.000000	-0.069110	0.000000	-0.000026	0.000000	0.000000	0.000000
