#ParticleID	Turn	x[m]	xp	y[m]	yp	z[m]	dE[GeV]# s	beta_x	beta_y	alpha_x	alpha_y	D_x	D_y	D_px	D_py	orbit_x	orbit_px	orbit_y	orbit_py
0.300000	11.807143	25.045684	-0.010338	-0.026975	2.618157	0.000000	-0.000005	0.000000	-0.000001	0.000002	0.000000	0.000000
0.601250	11.821059	25.065562	-0.035855	-0.039012	2.618155	0.000000	-0.000005	0.000000	-0.000001	0.000002	0.000000	0.000000
0.898573	11.849867	25.092293	-0.031979	-0.112425	2.618153	0.000000	-0.006425	0.000000	-0.000000	0.000002	0.000000	0.000000
1.339533	12.030120	24.913087	-0.378344	0.517278	2.631612	0.000000	0.067533	0.000000	0.000001	0.000002	0.000000	0.000000
1.780493	12.522278	24.186829	-0.741994	1.123446	2.677823	0.000000	0.142260	0.000000	0.000001	0.000002	0.000000	0.000000
2.221453	13.348825	22.946565	-1.139544	1.678498	2.757311	0.000000	0.218608	0.000000	0.000002	0.000002	0.000000	0.000000
2.662413	14.547526	21.248723	-1.589156	2.157179	2.870981	0.000000	0.297445	0.000000	0.000003	0.000002	0.000000	0.000000
3.108373	16.193870	19.145659	-2.115659	2.538844	3.021990	0.000000	0.380160	0.000000	0.000004	0.000002	0.000000	0.000000
3.657433	18.305058	16.783566	-1.706673	1.788615	3.205448	0.000000	0.287122	0.000000	0.000005	0.000002	0.000000	0.000000
4.206493	19.897871	15.170942	-1.177135	1.165785	3.336347	0.000000	0.188992	0.000000	0.000006	0.000002	0.000000	0.000000
4.755553	20.859801	14.192922	-0.564451	0.625991	3.412366	0.000000	0.087509	0.000000	0.000007	0.000001	0.000000	0.000000
5.304613	21.122902	13.779844	0.088103	0.130786	3.432156	0.000000	-0.015526	0.000000	0.000007	0.000001	0.000000	0.000000
5.603185	21.107471	13.686897	0.018766	0.144517	3.430197	0.000000	-0.006559	0.000000	0.000008	0.000001	0.000000	0.000000
5.936519	21.100226	13.598840	0.002968	0.119654	3.428011	0.000000	-0.006559	0.000000	0.000008	0.000001	0.000000	0.000000
6.269852	21.103513	13.527358	-0.012829	0.094792	3.425824	0.000000	-0.006559	0.000000	0.000009	0.000001	0.000000	0.000000
6.604435	21.117404	13.472276	-0.028686	0.069836	3.423629	0.000000	-0.006559	0.000000	0.000009	0.000001	0.000000	0.000000
6.901758	21.138651	13.437343	-0.098004	0.082766	3.421678	0.000000	0.002380	0.000000	0.000009	0.000001	0.000000	0.000000
7.450818	20.886032	13.607381	0.555375	-0.394283	3.394784	0.000000	-0.100200	0.000000	0.000010	0.000001	0.000000	0.000000
7.999878	19.933319	14.313530	1.169526	-0.899415	3.311972	0.000000	-0.201003	0.000000	0.000010	0.000001	0.000000	0.000000
8.548938	18.347805	15.606088	1.701067	-1.468610	3.174712	0.000000	-0.298241	0.000000	0.000011	0.000000	0.000000	0.000000
9.097998	16.241485	17.577121	2.112453	-2.142411	2.985439	0.000000	-0.390189	0.000000	0.000011	-0.000000	0.000000	0.000000
9.543958	14.598210	19.333388	1.585451	-1.779112	2.829737	0.000000	-0.308483	0.000000	0.000011	0.000000	0.000000	0.000000
9.984918	13.403060	20.712319	1.135168	-1.336100	2.710954	0.000000	-0.230775	0.000000	0.000011	0.000000	0.000000	0.000000
10.425878	12.580740	21.672148	0.736747	-0.832297	2.625826	0.000000	-0.155695	0.000000	0.000011	0.000001	0.000000	0.000000
10.866838	12.093680	22.169203	0.371987	-0.290625	2.573383	0.000000	-0.082388	0.000000	0.000012	0.000001	0.000000	0.000000
11.309048	11.919495	22.180344	0.053343	0.209824	2.553008	0.000000	-0.016280	0.000000	0.000012	0.000001	0.000000	0.000000
11.606371	11.895212	22.059734	0.028328	0.195829	2.548167	0.000000	-0.016280	0.000000	0.000012	0.000001	0.000000	0.000000
12.086371	11.887402	21.882583	-0.012057	0.173235	2.540352	0.000000	-0.016280	0.000000	0.000013	0.000001	0.000000	0.000000
12.566371	11.918361	21.727122	-0.052441	0.150642	2.532537	0.000000	-0.016280	0.000000	0.000014	0.000001	0.000000	0.000000
13.046371	11.988090	21.593351	-0.092826	0.128048	2.524721	0.000000	-0.016280	0.000000	0.000014	0.000001	0.000000	0.000000
13.526371	12.096587	21.481270	-0.133211	0.105455	2.516906	0.000000	-0.016280	0.000000	0.000015	0.000001	0.000000	0.000000
14.007621	12.244289	21.390671	-0.173701	0.082802	2.509071	0.000000	-0.016280	0.000000	0.000016	0.000001	0.000000	0.000000
14.304943	12.355017	21.345594	-0.168423	0.016470	2.504230	0.000000	-0.022420	0.000000	0.000016	0.000001	0.000000	0.000000
14.745903	12.662043	21.097455	-0.530487	0.544115	2.509974	0.000000	0.048502	0.000000	0.000017	0.000002	0.000000	0.000000
15.186863	13.297822	20.393155	-0.916788	1.047003	2.547084	0.000000	0.119976	0.000000	0.000018	0.000002	0.000000	0.000000
15.627823	14.291400	19.264742	-1.344974	1.502253	2.615982	0.000000	0.192817	0.000000	0.000019	0.000003	0.000000	0.000000
16.068783	15.688172	17.763555	-1.834609	1.889151	2.717453	0.000000	0.267853	0.000000	0.000020	0.000003	0.000000	0.000000
16.514743	17.575610	15.936398	-2.412820	2.190838	2.854347	0.000000	0.346403	0.000000	0.000021	0.000004	0.000000	0.000000
17.063803	19.999841	13.896263	-1.976280	1.546781	3.020811	0.000000	0.259072	0.000000	0.000023	0.000003	0.000000	0.000000
17.612863	21.864743	12.499091	-1.400146	1.012899	3.137992	0.000000	0.167146	0.000000	0.000025	0.000002	0.000000	0.000000
18.161923	23.038587	11.645367	-0.725112	0.551163	3.203811	0.000000	0.072256	0.000000	0.000026	0.000001	0.000000	0.000000
18.710983	23.438459	11.274280	0.001140	0.128685	3.217101	0.000000	-0.023917	0.000000	0.000026	0.000001	0.000000	0.000000
19.009556	23.478157	11.187955	-0.072872	0.130991	3.212469	0.000000	-0.015513	0.000000	0.000026	0.000001	0.000000	0.000000
19.342889	23.531496	11.110730	-0.087145	0.100686	3.207298	0.000000	-0.015513	0.000000	0.000027	0.000001	0.000000	0.000000
19.676223	23.594350	11.053707	-0.101418	0.070380	3.202127	0.000000	-0.015513	0.000000	0.000027	0.000001	0.000000	0.000000
20.010806	23.667302	11.016652	-0.233005	0.094545	3.196956	0.000000	0.000327	0.000000	0.000027	0.000001	0.000000	0.000000
20.308129	23.809796	10.968528	-0.308446	0.095968	3.197053	0.000000	0.008678	0.000000	0.000027	0.000001	0.000000	0.000000
20.857189	23.737840	11.085114	0.438724	-0.309559	3.175599	0.000000	-0.086712	0.000000	0.000027	-0.000000	0.000000	0.000000
21.406249	22.857630	11.656440	1.154905	-0.737135	3.102115	0.000000	-0.180564	0.000000	0.000027	-0.000001	0.000000	0.000000
21.955309	21.231341	12.723199	1.789510	-1.217216	2.977906	0.000000	-0.271214	0.000000	0.000026	-0.000002	0.000000	0.000000
22.504369	18.973846	14.361375	2.297712	-1.783996	2.805175	0.000000	-0.357053	0.000000	0.000025	-0.000003	0.000000	0.000000
22.950329	17.194658	15.832237	1.705938	-1.500281	2.663238	0.000000	-0.279844	0.000000	0.000024	-0.000002	0.000000	0.000000
23.391289	15.919504	17.004996	1.196799	-1.149158	2.556160	0.000000	-0.206278	0.000000	0.000023	-0.000001	0.000000	0.000000
23.832249	15.067652	17.843766	0.742339	-0.745749	2.480974	0.000000	-0.135060	0.000000	0.000023	-0.000001	0.000000	0.000000
24.273209	14.600185	18.310383	0.321795	-0.308408	2.436823	0.000000	-0.065381	0.000000	0.000022	-0.000000	0.000000	0.000000
24.715418	14.495865	18.383372	-0.048594	0.097823	2.423201	0.000000	-0.002388	0.000000	0.000022	0.000000	0.000000	0.000000
25.012741	14.530874	18.330056	-0.069153	0.081495	2.422491	0.000000	-0.002388	0.000000	0.000023	0.000000	0.000000	0.000000
25.346075	14.584659	18.281828	-0.092202	0.063189	2.421695	0.000000	-0.002388	0.000000	0.000023	0.000000	0.000000	0.000000
25.679408	14.653810	18.245804	-0.115252	0.044883	2.420899	0.000000	-0.002388	0.000000	0.000023	0.000000	0.000000	0.000000
26.013991	14.738374	18.222288	-0.018820	-0.121320	2.420076	0.000000	-0.022021	0.000000	0.000023	0.000000	0.000000	0.000000
26.311314	14.755566	18.299352	-0.002823	-0.182742	2.413529	0.000000	-0.027938	0.000000	0.000023	0.000000	0.000000	0.000000
26.752274	14.939838	18.262079	-0.416650	0.266949	2.416319	0.000000	0.040607	0.000000	0.000023	0.000001	0.000000	0.000000
27.193234	15.496055	17.832075	-0.849512	0.704493	2.449408	0.000000	0.109615	0.000000	0.000023	0.000001	0.000000	0.000000
27.634194	16.449629	17.028907	-1.321186	1.109984	2.513173	0.000000	0.179872	0.000000	0.000024	0.000002	0.000000	0.000000
28.075154	17.844126	15.889117	-1.853221	1.464971	2.608340	0.000000	0.252177	0.000000	0.000025	0.000002	0.000000	0.000000
28.521114	19.767480	14.447394	-2.474896	1.754215	2.737595	0.000000	0.327798	0.000000	0.000026	0.000003	0.000000	0.000000
29.070174	22.212070	12.841103	-1.951064	1.188583	2.894910	0.000000	0.244398	0.000000	0.000028	0.000002	0.000000	0.000000
29.619234	24.001885	11.806087	-1.289418	0.707612	3.005175	0.000000	0.156663	0.000000	0.000029	0.000001	0.000000	0.000000
30.168294	25.010502	11.268626	-0.536694	0.277042	3.066434	0.000000	0.066150	0.000000	0.000029	0.000000	0.000000	0.000000
30.717354	25.166675	11.190436	0.253939	-0.133795	3.077600	0.000000	-0.025537	0.000000	0.000029	-0.000001	0.000000	0.000000
31.015927	25.057961	11.260929	0.175916	-0.131536	3.072376	0.000000	-0.017497	0.000000	0.000029	-0.000000	0.000000	0.000000
31.349260	24.945255	11.358658	0.162201	-0.161649	3.066544	0.000000	-0.017497	0.000000	0.000029	-0.000000	0.000000	0.000000
31.682593	24.841692	11.476462	0.148487	-0.191762	3.060711	0.000000	-0.017497	0.000000	0.000029	-0.000000	0.000000	0.000000
32.017177	24.746935	11.614896	0.134722	-0.221988	3.054857	0.000000	-0.017497	0.000000	0.000029	-0.000000	0.000000	0.000000
32.314499	24.670460	11.754886	0.058045	-0.218142	3.049655	0.000000	-0.009531	0.000000	0.000028	-0.000000	0.000000	0.000000
32.863559	24.184010	12.233611	0.822678	-0.658903	3.019540	0.000000	-0.100005	0.000000	0.000028	-0.000001	0.000000	0.000000
33.412619	22.884997	13.219122	1.529200	-1.146597	2.940164	0.000000	-0.188706	0.000000	0.000027	-0.000002	0.000000	0.000000
33.961679	20.865177	14.781615	2.127708	-1.715960	2.812935	0.000000	-0.274059	0.000000	0.000026	-0.000003	0.000000	0.000000
34.510739	18.267220	17.032383	2.575924	-2.407547	2.640110	0.000000	-0.354551	0.000000	0.000024	-0.000004	0.000000	0.000000
34.956699	16.247158	19.045639	1.969995	-2.088035	2.498338	0.000000	-0.281622	0.000000	0.000022	-0.000003	0.000000	0.000000
35.397659	14.740784	20.711000	1.459087	-1.674264	2.389536	0.000000	-0.212329	0.000000	0.000021	-0.000003	0.000000	0.000000
35.838619	13.654003	21.976334	1.014841	-1.184314	2.310728	0.000000	-0.145454	0.000000	0.000020	-0.000002	0.000000	0.000000
36.279579	12.937163	22.784069	0.616960	-0.640480	2.261017	0.000000	-0.080235	0.000000	0.000019	-0.000002	0.000000	0.000000
36.721789	12.556819	23.097764	0.277948	-0.124190	2.239808	0.000000	-0.021422	0.000000	0.000018	-0.000001	0.000000	0.000000
37.019112	12.399122	23.175499	0.252441	-0.137261	2.233439	0.000000	-0.021422	0.000000	0.000018	-0.000001	0.000000	0.000000
37.352445	12.240360	23.271891	0.223844	-0.151915	2.226299	0.000000	-0.021422	0.000000	0.000017	-0.000001	0.000000	0.000000
37.685779	12.100663	23.378053	0.195247	-0.166569	2.219159	0.000000	-0.021422	0.000000	0.000017	-0.000001	0.000000	0.000000
38.020362	11.979615	23.494436	0.166543	-0.181278	2.211992	0.000000	-0.021422	0.000000	0.000017	-0.000001	0.000000	0.000000
38.317684	11.888164	23.606119	0.170184	-0.252230	2.205623	0.000000	-0.026830	0.000000	0.000016	-0.000001	0.000000	0.000000
38.758644	11.889613	23.567087	-0.173481	0.340407	2.207720	0.000000	0.036347	0.000000	0.000016	-0.000001	0.000000	0.000000
39.199604	12.196483	23.010258	-0.525073	0.917555	2.237740	0.000000	0.099938	0.000000	0.000015	-0.000000	0.000000	0.000000
39.640564	12.822796	21.960964	-0.900654	1.452955	2.296024	0.000000	0.164667	0.000000	0.000015	-0.000000	0.000000	0.000000
40.081524	13.797165	20.466950	-1.317383	1.922247	2.383238	0.000000	0.231271	0.000000	0.000015	0.000000	0.000000	0.000000
40.527484	15.181685	18.573613	-1.798127	2.305364	2.501845	0.000000	0.300915	0.000000	0.000016	0.000001	0.000000	0.000000
41.076544	16.948401	16.445924	-1.400534	1.592658	2.646536	0.000000	0.225359	0.000000	0.000016	0.000000	0.000000	0.000000
41.625604	18.221271	15.034359	-0.904014	0.993393	2.748582	0.000000	0.145805	0.000000	0.000016	-0.000000	0.000000	0.000000
42.174664	18.910387	14.238376	-0.343639	0.464885	2.806173	0.000000	0.063665	0.000000	0.000016	-0.000001	0.000000	0.000000
42.723724	18.967072	14.001278	0.241009	-0.030510	2.818287	0.000000	-0.019604	0.000000	0.000015	-0.000001	0.000000	0.000000
43.022297	18.857616	14.004021	0.175139	-0.015257	2.814632	0.000000	-0.012242	0.000000	0.000015	-0.000001	0.000000	0.000000
43.502297	18.702075	14.035124	0.148904	-0.049541	2.808757	0.000000	-0.012242	0.000000	0.000014	-0.000001	0.000000	0.000000
43.982297	18.571720	14.099140	0.122670	-0.083825	2.802882	0.000000	-0.012242	0.000000	0.000013	-0.000001	0.000000	0.000000
44.462297	18.466549	14.196068	0.096435	-0.118109	2.797006	0.000000	-0.012242	0.000000	0.000013	-0.000001	0.000000	0.000000
44.942297	18.386564	14.325909	0.070200	-0.152393	2.791131	0.000000	-0.012242	0.000000	0.000012	-0.000001	0.000000	0.000000
45.423547	18.331882	14.488949	-0.046929	-0.114978	2.785258	0.000000	0.001558	0.000000	0.000011	-0.000001	0.000000	0.000000
45.720870	18.364621	14.563502	-0.111162	-0.097722	2.785721	0.000000	0.008836	0.000000	0.000011	-0.000001	0.000000	0.000000
46.269930	18.177472	14.952436	0.449997	-0.614821	2.768002	0.000000	-0.073287	0.000000	0.000010	-0.000002	0.000000	0.000000
46.818990	17.387990	15.929778	0.979370	-1.175713	2.705484	0.000000	-0.154110	0.000000	0.000009	-0.000002	0.000000	0.000000
47.368050	16.051940	17.565141	1.439566	-1.820347	2.599275	0.000000	-0.232200	0.000000	0.000008	-0.000002	0.000000	0.000000
47.917110	14.263693	19.975011	1.798077	-2.594641	2.451259	0.000000	-0.306172	0.000000	0.000007	-0.000002	0.000000	0.000000
48.363070	12.872158	22.117528	1.333292	-2.189443	2.330011	0.000000	-0.237874	0.000000	0.000006	-0.000002	0.000000	0.000000
48.804030	11.876506	23.832929	0.933191	-1.685903	2.239578	0.000000	-0.172684	0.000000	0.000005	-0.000002	0.000000	0.000000
49.244990	11.213649	25.068596	0.575725	-1.105655	2.177431	0.000000	-0.109459	0.000000	0.000004	-0.000002	0.000000	0.000000
49.685950	10.853302	25.768309	0.244562	-0.475101	2.142863	0.000000	-0.047482	0.000000	0.000003	-0.000002	0.000000	0.000000
50.128160	10.779125	25.899948	-0.049111	0.113508	2.135489	0.000000	0.008718	0.000000	0.000003	-0.000002	0.000000	0.000000
50.425482	10.816549	25.835908	-0.076761	0.101880	2.138082	0.000000	0.008718	0.000000	0.000002	-0.000002	0.000000	0.000000
50.758816	10.878056	25.772333	-0.107759	0.088845	2.140988	0.000000	0.008718	0.000000	0.000001	-0.000002	0.000000	0.000000
51.092149	10.960229	25.717448	-0.138758	0.075809	2.143895	0.000000	0.008718	0.000000	0.000001	-0.000002	0.000000	0.000000
51.426732	11.063267	25.671618	-0.080120	-0.145537	2.146791	0.000000	-0.008698	0.000000	0.000000	-0.000002	0.000000	0.000000
51.724055	11.118952	25.761678	-0.079901	-0.220540	2.144205	0.000000	-0.013956	0.000000	-0.000000	-0.000002	0.000000	0.000000
52.165015	11.334617	25.669549	-0.411037	0.428672	2.151640	0.000000	0.047706	0.000000	-0.000001	-0.000002	0.000000	0.000000
52.605975	11.849465	25.011314	-0.760953	1.058380	2.186359	0.000000	0.109912	0.000000	-0.000002	-0.000002	0.000000	0.000000
53.046935	12.687016	23.816922	-1.145635	1.639932	2.248758	0.000000	0.173369	0.000000	-0.000003	-0.000002	0.000000	0.000000
53.487895	13.885537	22.140716	-1.582658	2.146868	2.339548	0.000000	0.238801	0.000000	-0.000004	-0.000002	0.000000	0.000000
53.933855	15.520332	20.033902	-2.096212	2.557463	2.461267	0.000000	0.307352	0.000000	-0.000004	-0.000002	0.000000	0.000000
54.482915	17.625126	17.663148	-1.714546	1.785867	2.609842	0.000000	0.233047	0.000000	-0.000006	-0.000002	0.000000	0.000000
55.031975	19.241417	16.065293	-1.211772	1.141476	2.716423	0.000000	0.154609	0.000000	-0.000007	-0.000002	0.000000	0.000000
55.581035	20.255039	15.126526	-0.623405	0.578388	2.779120	0.000000	0.073428	0.000000	-0.000007	-0.000002	0.000000	0.000000
56.130095	20.594394	14.779980	0.008996	0.056499	2.796819	0.000000	-0.009055	0.000000	-0.000008	-0.000001	0.000000	0.000000
56.428668	20.625494	14.729266	-0.059344	0.074735	2.796298	0.000000	-0.001747	0.000000	-0.000009	-0.000001	0.000000	0.000000
56.762001	20.670462	14.687029	-0.075562	0.051978	2.795716	0.000000	-0.001747	0.000000	-0.000009	-0.000001	0.000000	0.000000
57.095334	20.726243	14.659962	-0.091780	0.029221	2.795134	0.000000	-0.001747	0.000000	-0.000009	-0.000001	0.000000	0.000000
57.429918	20.793106	14.648052	-0.108059	0.006378	2.794550	0.000000	-0.001747	0.000000	-0.000010	-0.000001	0.000000	0.000000
57.727240	20.861663	14.650294	-0.177037	0.024361	2.794031	0.000000	0.005554	0.000000	-0.000010	-0.000001	0.000000	0.000000
58.276300	20.700200	14.904814	0.469368	-0.490653	2.774442	0.000000	-0.076808	0.000000	-0.000011	-0.000001	0.000000	0.000000
58.825360	19.842991	15.740639	1.082620	-1.040616	2.709938	0.000000	-0.157808	0.000000	-0.000011	-0.000001	0.000000	0.000000
59.374420	18.350586	17.217302	1.619400	-1.664699	2.601665	0.000000	-0.236008	0.000000	-0.000011	-0.000000	0.000000	0.000000
59.923480	16.328400	19.439984	2.041795	-2.407355	2.451542	0.000000	-0.310023	0.000000	-0.000011	0.000000	0.000000	0.000000
60.369440	14.745694	21.415484	1.519760	-2.003716	2.328574	0.000000	-0.241741	0.000000	-0.000011	-0.000000	0.000000	0.000000
60.810400	13.607433	22.970937	1.071358	-1.510285	2.236424	0.000000	-0.176609	0.000000	-0.000012	-0.000000	0.000000	0.000000
61.251360	12.841630	24.059144	0.671903	-0.948138	2.172524	0.000000	-0.113489	0.000000	-0.000012	-0.000001	0.000000	0.000000
61.692320	12.413298	24.630594	0.303145	-0.342852	2.136147	0.000000	-0.051662	0.000000	-0.000012	-0.000001	0.000000	0.000000
62.134530	12.302921	24.658741	-0.021690	0.217503	2.126883	0.000000	0.004361	0.000000	-0.000013	-0.000001	0.000000	0.000000
62.431853	12.323007	24.533158	-0.045868	0.204875	2.128180	0.000000	0.004361	0.000000	-0.000013	-0.000001	0.000000	0.000000
62.765186	12.362622	24.401294	-0.072975	0.190718	2.129634	0.000000	0.004361	0.000000	-0.000014	-0.000001	0.000000	0.000000
63.098520	12.420307	24.278868	-0.100081	0.176560	2.131088	0.000000	0.004361	0.000000	-0.000014	-0.000001	0.000000	0.000000
63.433103	12.496381	24.165475	-0.127290	0.162350	2.132548	0.000000	0.004361	0.000000	-0.000015	-0.000001	0.000000	0.000000
63.730426	12.579262	24.072689	-0.120615	0.090680	2.133845	0.000000	-0.000872	0.000000	-0.000015	-0.000001	0.000000	0.000000
64.171386	12.845863	23.727615	-0.486271	0.688894	2.147001	0.000000	0.060597	0.000000	-0.000016	-0.000002	0.000000	0.000000
64.612346	13.443483	22.866824	-0.874142	1.255763	2.187389	0.000000	0.122756	0.000000	-0.000017	-0.000002	0.000000	0.000000
65.053306	14.399425	21.529480	-1.301951	1.765497	2.255469	0.000000	0.186313	0.000000	-0.000018	-0.000003	0.000000	0.000000
65.494266	15.757365	19.776432	-1.789241	2.194902	2.352016	0.000000	0.251992	0.000000	-0.000019	-0.000003	0.000000	0.000000
65.940226	17.602502	17.662642	-2.362968	2.525192	2.479702	0.000000	0.320943	0.000000	-0.000020	-0.000004	0.000000	0.000000
66.489286	19.967929	15.298027	-1.919670	1.806891	2.635555	0.000000	0.245924	0.000000	-0.000022	-0.000003	0.000000	0.000000
67.038346	21.768768	13.647314	-1.340776	1.217291	2.748957	0.000000	0.166542	0.000000	-0.000023	-0.000002	0.000000	0.000000
67.587406	22.877819	12.592926	-0.667177	0.714396	2.817897	0.000000	0.084206	0.000000	-0.000024	-0.000001	0.000000	0.000000
68.136466	23.216744	12.059761	0.053548	0.262386	2.841152	0.000000	0.000376	0.000000	-0.000025	-0.000001	0.000000	0.000000
68.435038	23.224839	11.892289	-0.019986	0.267006	2.843482	0.000000	0.007801	0.000000	-0.000025	-0.000001	0.000000	0.000000
68.768372	23.242949	11.724294	-0.034344	0.236979	2.846083	0.000000	0.007801	0.000000	-0.000025	-0.000001	0.000000	0.000000
69.101705	23.270631	11.576317	-0.048703	0.206951	2.848683	0.000000	0.007801	0.000000	-0.000026	-0.000001	0.000000	0.000000
69.436288	23.308043	11.447917	-0.063115	0.176811	2.851294	0.000000	0.007801	0.000000	-0.000026	-0.000001	0.000000	0.000000
69.733611	23.349382	11.350741	-0.136943	0.179691	2.853613	0.000000	0.015259	0.000000	-0.000026	-0.000001	0.000000	0.000000
70.282671	23.098740	11.380784	0.590733	-0.234731	2.838808	0.000000	-0.069111	0.000000	-0.000026	0.000000	0.000000	0.000000
