#ParticleID	Turn	x[m]	xp	y[m]	yp	z[m]	dE[GeV]# s	beta_x	beta_y	alpha_x	alpha_y	D_x	D_y	D_px	D_py	orbit_x	orbit_px	orbit_y	orbit_py
0.300000	11.823137	24.980720	-0.012149	-0.027611	2.618103	0.000000	0.000016	0.000000	0.000000	0.000001	0.000000	0.000000
0.601250	11.838134	25.000991	-0.037633	-0.039679	2.618108	0.000000	0.000016	0.000000	0.000000	0.000001	0.000000	0.000000
0.898573	11.867990	25.028128	-0.033680	-0.112966	2.618112	0.000000	-0.006405	0.000000	0.000000	0.000001	0.000000	0.000000
1.339533	12.049937	24.850146	-0.380502	0.515053	2.631581	0.000000	0.067553	0.000000	0.000001	0.000001	0.000000	0.000000
1.780493	12.544235	24.126559	-0.744708	1.119638	2.677801	0.000000	0.142279	0.000000	0.000001	0.000001	0.000000	0.000000
2.221453	13.373465	22.890289	-1.142937	1.673280	2.757297	0.000000	0.218626	0.000000	0.000001	0.000001	0.000000	0.000000
2.662413	14.575512	21.197586	-1.593384	2.150790	2.870976	0.000000	0.297463	0.000000	0.000002	0.000001	0.000000	0.000000
3.108373	16.226073	19.100640	-2.120922	2.531571	3.021994	0.000000	0.380178	0.000000	0.000002	0.000001	0.000000	0.000000
3.657433	18.342614	16.745519	-1.711102	1.783115	3.205462	0.000000	0.287140	0.000000	0.000002	0.000001	0.000000	0.000000
4.206493	19.939686	15.138146	-1.180418	1.161666	3.336372	0.000000	0.189009	0.000000	0.000003	0.000001	0.000000	0.000000
4.755553	20.904481	14.164028	-0.566355	0.622961	3.412400	0.000000	0.087525	0.000000	0.000003	0.000001	0.000000	0.000000
5.304613	21.168849	13.753783	0.087712	0.128627	3.432199	0.000000	-0.015511	0.000000	0.000003	0.000000	0.000000	0.000000
5.603185	21.153715	13.662173	0.018284	0.142266	3.430245	0.000000	-0.006544	0.000000	0.000003	0.000000	0.000000	0.000000
5.936519	21.146780	13.575626	0.002522	0.117374	3.428064	0.000000	-0.006544	0.000000	0.000003	0.000000	0.000000	0.000000
6.269852	21.150353	13.505675	-0.013241	0.092481	3.425883	0.000000	-0.006544	0.000000	0.000004	0.000000	0.000000	0.000000
6.604435	21.164508	13.452149	-0.029063	0.067496	3.423693	0.000000	-0.006544	0.000000	0.000004	0.000000	0.000000	0.000000
6.901758	21.185971	13.418614	-0.098477	0.080352	3.421747	0.000000	0.002397	0.000000	0.000004	0.000000	0.000000	0.000000
7.450818	20.932998	13.591023	0.556488	-0.396212	3.394861	0.000000	-0.100186	0.000000	0.000004	0.000000	0.000000	0.000000
7.999878	19.978223	14.299090	1.172145	-0.900999	3.312057	0.000000	-0.200992	0.000000	0.000004	0.000000	0.000000	0.000000
8.548938	18.389086	15.593250	1.705007	-1.469961	3.174803	0.000000	-0.298232	0.000000	0.000004	0.000000	0.000000	0.000000
9.097998	16.277837	17.565683	2.117437	-2.143625	2.985533	0.000000	-0.390183	0.000000	0.000004	-0.000000	0.000000	0.000000
9.543958	14.630613	19.323256	1.589355	-1.780817	2.829834	0.000000	-0.308475	0.000000	0.000004	-0.000000	0.000000	0.000000
9.984918	13.432425	20.703877	1.138179	-1.338213	2.711056	0.000000	-0.230764	0.000000	0.000004	0.000000	0.000000	0.000000
10.425878	12.607792	21.665715	0.739003	-0.834722	2.625933	0.000000	-0.155682	0.000000	0.000004	0.000000	0.000000	0.000000
10.866838	12.119037	22.165007	0.373590	-0.293252	2.573497	0.000000	-0.082372	0.000000	0.000004	0.000000	0.000000	0.000000
11.309048	11.943694	22.178517	0.054430	0.207115	2.553129	0.000000	-0.016262	0.000000	0.000005	0.000000	0.000000	0.000000
11.606371	11.918751	22.059514	0.029462	0.193134	2.548294	0.000000	-0.016262	0.000000	0.000005	0.000000	0.000000	0.000000
12.086371	11.909815	21.884939	-0.010845	0.170563	2.540488	0.000000	-0.016262	0.000000	0.000005	0.000000	0.000000	0.000000
12.566371	11.939574	21.732033	-0.051153	0.147992	2.532682	0.000000	-0.016262	0.000000	0.000005	0.000000	0.000000	0.000000
13.046371	12.008029	21.600795	-0.091461	0.125421	2.524876	0.000000	-0.016262	0.000000	0.000005	0.000000	0.000000	0.000000
13.526371	12.115179	21.491225	-0.131768	0.102850	2.517070	0.000000	-0.016262	0.000000	0.000005	0.000000	0.000000	0.000000
14.007621	12.261454	21.403123	-0.172181	0.080220	2.509244	0.000000	-0.016262	0.000000	0.000006	0.000000	0.000000	0.000000
14.304943	12.371264	21.359577	-0.166812	0.013862	2.504408	0.000000	-0.022403	0.000000	0.000006	0.000000	0.000000	0.000000
14.745903	12.677015	21.113554	-0.529194	0.541941	2.510162	0.000000	0.048523	0.000000	0.000006	0.000001	0.000000	0.000000
15.186863	13.311772	20.410944	-0.915754	1.045361	2.547283	0.000000	0.120003	0.000000	0.000006	0.000001	0.000000	0.000000
15.627823	14.304533	19.283715	-1.344151	1.501218	2.616194	0.000000	0.192848	0.000000	0.000007	0.000001	0.000000	0.000000
16.068783	15.700657	17.783155	-1.833959	1.888771	2.717681	0.000000	0.267891	0.000000	0.000007	0.000001	0.000000	0.000000
16.514743	17.587581	15.956035	-2.412313	2.191134	2.854594	0.000000	0.346447	0.000000	0.000008	0.000001	0.000000	0.000000
17.063803	20.010930	13.915809	-1.975191	1.546651	3.021081	0.000000	0.259108	0.000000	0.000008	0.000001	0.000000	0.000000
17.612863	21.874348	12.519018	-1.398550	1.012333	3.138280	0.000000	0.167173	0.000000	0.000009	0.000001	0.000000	0.000000
18.161923	23.046211	11.666171	-0.723123	0.550121	3.204112	0.000000	0.072273	0.000000	0.000009	0.000000	0.000000	0.000000
18.710983	23.443746	11.296521	0.003382	0.127093	3.217408	0.000000	-0.023909	0.000000	0.000009	0.000000	0.000000	0.000000
19.009556	23.482116	11.211090	-0.070646	0.129528	3.212779	0.000000	-0.015504	0.000000	0.000009	0.000000	0.000000	0.000000
19.342889	23.533969	11.134815	-0.084912	0.099296	3.207611	0.000000	-0.015504	0.000000	0.000009	0.000000	0.000000	0.000000
19.676223	23.595333	11.078694	-0.099178	0.069065	3.202443	0.000000	-0.015504	0.000000	0.000009	0.000000	0.000000	0.000000
20.010806	23.666784	11.042494	-0.230756	0.093432	3.197276	0.000000	0.000338	0.000000	0.000009	0.000000	0.000000	0.000000
20.308129	23.807936	10.995011	-0.306189	0.094997	3.197376	0.000000	0.008691	0.000000	0.000010	0.000000	0.000000	0.000000
20.857189	23.733546	11.113075	0.440872	-0.311296	3.175926	0.000000	-0.086710	0.000000	0.000010	-0.000000	0.000000	0.000000
21.406249	22.851109	11.686782	1.156792	-0.739761	3.102441	0.000000	-0.180573	0.000000	0.000009	-0.000000	0.000000	0.000000
21.955309	21.222956	12.756996	1.791001	-1.220918	2.978224	0.000000	-0.271233	0.000000	0.000009	-0.000001	0.000000	0.000000
22.504369	18.964090	14.399945	2.298704	-1.789039	2.805479	0.000000	-0.357082	0.000000	0.000009	-0.000001	0.000000	0.000000
22.950329	17.183980	15.874918	1.707023	-1.504419	2.663530	0.000000	-0.279865	0.000000	0.000008	-0.000001	0.000000	0.000000
23.391289	15.907809	17.050859	1.198029	-1.152206	2.556444	0.000000	-0.206291	0.000000	0.000008	-0.000001	0.000000	0.000000
23.832249	15.054789	17.891784	0.743769	-0.747569	2.481254	0.000000	-0.135067	0.000000	0.000008	-0.000000	0.000000	0.000000
24.273209	14.585949	18.359431	0.323491	-0.308917	2.437101	0.000000	-0.065380	0.000000	0.000008	-0.000000	0.000000	0.000000
24.715418	14.479984	18.432278	-0.046589	0.098522	2.423481	0.000000	-0.002381	0.000000	0.000008	0.000000	0.000000	0.000000
25.012741	14.513806	18.378534	-0.067167	0.082235	2.422773	0.000000	-0.002381	0.000000	0.000008	0.000000	0.000000	0.000000
25.346075	14.566275	18.329797	-0.090237	0.063976	2.421980	0.000000	-0.002381	0.000000	0.000008	0.000000	0.000000	0.000000
25.679408	14.634123	18.293234	-0.113308	0.045716	2.421186	0.000000	-0.002381	0.000000	0.000008	0.000000	0.000000	0.000000
26.013991	14.717394	18.269145	-0.017067	-0.120821	2.420365	0.000000	-0.022017	0.000000	0.000008	-0.000000	0.000000	0.000000
26.311314	14.733551	18.345900	-0.001147	-0.182319	2.413819	0.000000	-0.027936	0.000000	0.000008	-0.000000	0.000000	0.000000
26.752274	14.916102	18.307697	-0.414407	0.268624	2.416612	0.000000	0.040617	0.000000	0.000008	0.000000	0.000000	0.000000
27.193234	15.470054	17.875690	-0.846601	0.707345	2.449708	0.000000	0.109633	0.000000	0.000008	0.000000	0.000000	0.000000
27.634194	16.420718	17.069534	-1.317473	1.113883	2.513482	0.000000	0.179897	0.000000	0.000008	0.000001	0.000000	0.000000
28.075154	17.811526	15.925908	-1.848537	1.469739	2.608663	0.000000	0.252211	0.000000	0.000008	0.000001	0.000000	0.000000
28.521114	19.730186	14.479622	-2.469016	1.759637	2.737936	0.000000	0.327840	0.000000	0.000009	0.000001	0.000000	0.000000
29.070174	22.168816	12.868088	-1.946155	1.192765	2.895272	0.000000	0.244429	0.000000	0.000009	0.000001	0.000000	0.000000
29.619234	23.953935	11.829021	-1.285826	0.710851	3.005551	0.000000	0.156682	0.000000	0.000010	0.000000	0.000000	0.000000
30.168294	24.959451	11.288412	-0.534674	0.279570	3.066817	0.000000	0.066157	0.000000	0.000010	0.000000	0.000000	0.000000
30.717354	25.114340	11.207752	0.254245	-0.131798	3.077984	0.000000	-0.025542	0.000000	0.000010	-0.000000	0.000000	0.000000
31.015927	25.005376	11.277008	0.176320	-0.129437	3.072758	0.000000	-0.017501	0.000000	0.000010	-0.000000	0.000000	0.000000
31.349260	24.892411	11.373317	0.162575	-0.159491	3.066925	0.000000	-0.017501	0.000000	0.000010	-0.000000	0.000000	0.000000
31.682593	24.788609	11.489662	0.148830	-0.189545	3.061091	0.000000	-0.017501	0.000000	0.000010	-0.000000	0.000000	0.000000
32.017177	24.693632	11.626592	0.135034	-0.219711	3.055236	0.000000	-0.017501	0.000000	0.000010	-0.000000	0.000000	0.000000
32.314499	24.616980	11.765212	0.058459	-0.215780	3.050032	0.000000	-0.009532	0.000000	0.000009	-0.000000	0.000000	0.000000
32.863559	24.131053	12.241447	0.821318	-0.656702	3.019913	0.000000	-0.100019	0.000000	0.000009	-0.000000	0.000000	0.000000
33.412619	22.834469	13.224557	1.526163	-1.144400	2.940526	0.000000	-0.188731	0.000000	0.000009	-0.000001	0.000000	0.000000
33.961679	20.818813	14.784567	2.123207	-1.713610	2.813280	0.000000	-0.274096	0.000000	0.000008	-0.000001	0.000000	0.000000
34.510739	18.226462	17.032595	2.570279	-2.404877	2.640430	0.000000	-0.354599	0.000000	0.000008	-0.000001	0.000000	0.000000
34.956699	16.210871	19.043335	1.965581	-2.085087	2.498637	0.000000	-0.281662	0.000000	0.000007	-0.000001	0.000000	0.000000
35.397659	14.707926	20.706022	1.455694	-1.671173	2.389819	0.000000	-0.212361	0.000000	0.000007	-0.000001	0.000000	0.000000
35.838619	13.623747	21.968620	1.012312	-1.181223	2.310999	0.000000	-0.145478	0.000000	0.000006	-0.000001	0.000000	0.000000
36.279579	12.908800	22.773680	0.615181	-0.637528	2.261277	0.000000	-0.080253	0.000000	0.000006	-0.000001	0.000000	0.000000
36.721789	12.529728	23.084877	0.276774	-0.121488	2.240062	0.000000	-0.021434	0.000000	0.000006	-0.000000	0.000000	0.000000
37.019112	12.372741	23.161005	0.251227	-0.134558	2.233689	0.000000	-0.021434	0.000000	0.000006	-0.000000	0.000000	0.000000
37.352445	12.214804	23.255595	0.222586	-0.149210	2.226544	0.000000	-0.021434	0.000000	0.000006	-0.000000	0.000000	0.000000
37.685779	12.075960	23.359952	0.193945	-0.163863	2.219400	0.000000	-0.021434	0.000000	0.000005	-0.000000	0.000000	0.000000
38.020362	11.955798	23.474525	0.165196	-0.178570	2.212228	0.000000	-0.021434	0.000000	0.000005	-0.000000	0.000000	0.000000
38.317684	11.865160	23.584597	0.168744	-0.249474	2.205855	0.000000	-0.026844	0.000000	0.000005	-0.000000	0.000000	0.000000
38.758644	11.867650	23.543395	-0.174412	0.342554	2.207947	0.000000	0.036339	0.000000	0.000005	-0.000000	0.000000	0.000000
39.199604	12.175134	22.984977	-0.525538	0.918997	2.237965	0.000000	0.099936	0.000000	0.000005	-0.000000	0.000000	0.000000
39.640564	12.801659	21.934748	-0.900673	1.453625	2.296250	0.000000	0.164671	0.000000	0.000005	-0.000000	0.000000	0.000000
40.081524	13.775850	20.440496	-1.316958	1.922115	2.383466	0.000000	0.231281	0.000000	0.000005	0.000000	0.000000	0.000000
40.527484	15.159784	18.547637	-1.797236	2.304431	2.502080	0.000000	0.300931	0.000000	0.000005	0.000000	0.000000	0.000000
41.076544	16.925976	16.420597	-1.400478	1.592403	2.646777	0.000000	0.225367	0.000000	0.000005	0.000000	0.000000	0.000000
41.625604	18.199248	15.008950	-0.904798	0.993798	2.748825	0.000000	0.145805	0.000000	0.000005	-0.000000	0.000000	0.000000
42.174664	18.889663	14.212147	-0.345207	0.465980	2.806414	0.000000	0.063657	0.000000	0.000005	-0.000000	0.000000	0.000000
42.723724	18.948452	13.973435	0.238767	-0.028648	2.818521	0.000000	-0.019620	0.000000	0.000005	-0.000000	0.000000	0.000000
43.022297	18.840310	13.975121	0.172939	-0.013507	2.814862	0.000000	-0.012256	0.000000	0.000004	-0.000000	0.000000	0.000000
43.502297	18.686883	14.004577	0.146700	-0.047860	2.808980	0.000000	-0.012256	0.000000	0.000004	-0.000000	0.000000	0.000000
43.982297	18.558646	14.067013	0.120460	-0.082214	2.803097	0.000000	-0.012256	0.000000	0.000004	-0.000000	0.000000	0.000000
44.462297	18.455599	14.162427	0.094221	-0.116567	2.797215	0.000000	-0.012256	0.000000	0.000004	-0.000000	0.000000	0.000000
44.942297	18.377742	14.290820	0.067982	-0.150920	2.791332	0.000000	-0.012256	0.000000	0.000004	-0.000000	0.000000	0.000000
45.423547	18.325196	14.452477	-0.049119	-0.113756	2.785452	0.000000	0.001545	0.000000	0.000003	-0.000000	0.000000	0.000000
45.720870	18.359240	14.526317	-0.113351	-0.096641	2.785912	0.000000	0.008824	0.000000	0.000003	-0.000000	0.000000	0.000000
46.269930	18.174575	14.913436	0.447690	-0.612579	2.768184	0.000000	-0.073305	0.000000	0.000003	-0.000001	0.000000	0.000000
46.818990	17.387616	15.887608	0.977108	-1.172149	2.705653	0.000000	-0.154134	0.000000	0.000003	-0.000001	0.000000	0.000000
47.368050	16.053952	17.518222	1.437508	-1.815209	2.599429	0.000000	-0.232229	0.000000	0.000002	-0.000001	0.000000	0.000000
47.917110	14.267785	19.921422	1.796370	-2.587562	2.451395	0.000000	-0.306205	0.000000	0.000002	-0.000001	0.000000	0.000000
48.363070	12.877729	22.058134	1.331670	-2.183559	2.330132	0.000000	-0.237905	0.000000	0.000002	-0.000001	0.000000	0.000000
48.804030	11.883499	23.768970	0.931577	-1.681477	2.239686	0.000000	-0.172711	0.000000	0.000001	-0.000001	0.000000	0.000000
49.244990	11.222088	25.001455	0.574046	-1.102889	2.177527	0.000000	-0.109484	0.000000	0.000001	-0.000001	0.000000	0.000000
49.685950	10.863278	25.699510	0.242742	-0.474121	2.142947	0.000000	-0.047505	0.000000	0.000001	-0.000001	0.000000	0.000000
50.128160	10.790804	25.831092	-0.051127	0.112825	2.135564	0.000000	0.008697	0.000000	0.000000	-0.000001	0.000000	0.000000
50.425482	10.829420	25.767467	-0.078752	0.101168	2.138150	0.000000	0.008697	0.000000	0.000000	-0.000001	0.000000	0.000000
50.758816	10.892245	25.704378	-0.109723	0.088100	2.141049	0.000000	0.008697	0.000000	-0.000000	-0.000001	0.000000	0.000000
51.092149	10.975718	25.650001	-0.140695	0.075031	2.143948	0.000000	0.008697	0.000000	-0.000000	-0.000001	0.000000	0.000000
51.426732	11.080043	25.604701	-0.081893	-0.145804	2.146837	0.000000	-0.008719	0.000000	-0.000000	-0.000001	0.000000	0.000000
51.724055	11.136772	25.694929	-0.081597	-0.220676	2.144245	0.000000	-0.013978	0.000000	-0.000001	-0.000001	0.000000	0.000000
52.165015	11.354125	25.603699	-0.413182	0.426777	2.151670	0.000000	0.047686	0.000000	-0.000001	-0.000001	0.000000	0.000000
52.605975	11.871097	24.947882	-0.763645	1.054811	2.186380	0.000000	0.109892	0.000000	-0.000001	-0.000001	0.000000	0.000000
53.046935	12.711308	23.757318	-1.148996	1.634853	2.248770	0.000000	0.173350	0.000000	-0.000001	-0.000001	0.000000	0.000000
53.487895	13.913143	22.086175	-1.586842	2.140509	2.339550	0.000000	0.238782	0.000000	-0.000002	-0.000001	0.000000	0.000000
53.933855	15.552112	19.985502	-2.101420	2.550110	2.461260	0.000000	0.307333	0.000000	-0.000002	-0.000001	0.000000	0.000000
54.482915	17.662204	17.621761	-1.718930	1.780370	2.609825	0.000000	0.233028	0.000000	-0.000003	-0.000001	0.000000	0.000000
55.031975	19.282713	16.029109	-1.215024	1.137441	2.716395	0.000000	0.154591	0.000000	-0.000003	-0.000001	0.000000	0.000000
55.581035	20.299175	15.094105	-0.625295	0.575529	2.779081	0.000000	0.073411	0.000000	-0.000003	-0.000001	0.000000	0.000000
56.130095	20.639792	14.750150	0.008602	0.054611	2.796771	0.000000	-0.009070	0.000000	-0.000003	-0.000000	0.000000	0.000000
56.428668	20.671188	14.700621	-0.059823	0.072734	2.796245	0.000000	-0.001763	0.000000	-0.000004	-0.000000	0.000000	0.000000
56.762001	20.716464	14.659730	-0.076006	0.049940	2.795657	0.000000	-0.001763	0.000000	-0.000004	-0.000000	0.000000	0.000000
57.095334	20.772529	14.634035	-0.092189	0.027145	2.795070	0.000000	-0.001763	0.000000	-0.000004	-0.000000	0.000000	0.000000
57.429918	20.839654	14.623526	-0.108433	0.004265	2.794480	0.000000	-0.001763	0.000000	-0.000004	-0.000000	0.000000	0.000000
57.727240	20.908425	14.627035	-0.177500	0.022151	2.793956	0.000000	0.005538	0.000000	-0.000004	-0.000000	0.000000	0.000000
58.276300	20.746608	14.883627	0.470473	-0.492239	2.774358	0.000000	-0.076822	0.000000	-0.000004	-0.000000	0.000000	0.000000
58.825360	19.887356	15.720905	1.085213	-1.041691	2.709847	0.000000	-0.157819	0.000000	-0.000004	-0.000000	0.000000	0.000000
59.374420	18.391364	17.198506	1.623300	-1.665341	2.601568	0.000000	-0.236017	0.000000	-0.000004	-0.000000	0.000000	0.000000
59.923480	16.364301	19.421677	2.046725	-2.407609	2.451442	0.000000	-0.310028	0.000000	-0.000004	0.000000	0.000000	0.000000
60.369440	14.777687	21.397690	1.523623	-2.004610	2.328471	0.000000	-0.241748	0.000000	-0.000004	0.000000	0.000000	0.000000
60.810400	13.636418	22.954198	1.074340	-1.511775	2.236317	0.000000	-0.176620	0.000000	-0.000004	-0.000000	0.000000	0.000000
61.251360	12.868322	24.043958	0.674140	-0.950155	2.172412	0.000000	-0.113502	0.000000	-0.000005	-0.000000	0.000000	0.000000
61.692320	12.438306	24.617386	0.304740	-0.345305	2.136028	0.000000	-0.051678	0.000000	-0.000005	-0.000000	0.000000	0.000000
62.134530	12.326776	24.647855	-0.020609	0.214757	2.126756	0.000000	0.004343	0.000000	-0.000005	-0.000000	0.000000	0.000000
62.431853	12.346205	24.523903	-0.044739	0.202137	2.128047	0.000000	0.004343	0.000000	-0.000005	-0.000000	0.000000	0.000000
62.765186	12.385049	24.393860	-0.071792	0.187990	2.129495	0.000000	0.004343	0.000000	-0.000005	-0.000000	0.000000	0.000000
63.098520	12.441928	24.273250	-0.098845	0.173842	2.130942	0.000000	0.004343	0.000000	-0.000005	-0.000000	0.000000	0.000000
63.433103	12.517157	24.161671	-0.125999	0.159642	2.132396	0.000000	0.004343	0.000000	-0.000005	-0.000000	0.000000	0.000000
63.730426	12.599256	24.070493	-0.119231	0.087991	2.133687	0.000000	-0.000890	0.000000	-0.000005	-0.000000	0.000000	0.000000
64.171386	12.864825	23.727794	-0.485306	0.686217	2.146834	0.000000	0.060575	0.000000	-0.000006	-0.000001	0.000000	0.000000
64.612346	13.461762	22.869313	-0.873553	1.253221	2.187211	0.000000	0.122730	0.000000	-0.000006	-0.000001	0.000000	0.000000
65.053306	14.417341	21.534110	-1.301710	1.763204	2.255277	0.000000	0.186282	0.000000	-0.000006	-0.000001	0.000000	0.000000
65.494266	15.775218	19.782935	-1.789339	2.192962	2.351808	0.000000	0.251956	0.000000	-0.000007	-0.000001	0.000000	0.000000
65.940226	17.620596	17.670681	-2.363410	2.523698	2.479476	0.000000	0.320902	0.000000	-0.000007	-0.000001	0.000000	0.000000
66.489286	19.986103	15.307681	-1.919373	1.805425	2.635307	0.000000	0.245890	0.000000	-0.000008	-0.000001	0.000000	0.000000
67.038346	21.786220	13.658610	-1.339762	1.215748	2.748692	0.000000	0.166516	0.000000	-0.000008	-0.000001	0.000000	0.000000
67.587406	22.893794	12.606009	-0.665517	0.712665	2.817620	0.000000	0.084189	0.000000	-0.000009	-0.000000	0.000000	0.000000
68.136466	23.230593	12.074904	0.055738	0.260345	2.840868	0.000000	0.000368	0.000000	-0.000009	-0.000000	0.000000	0.000000
68.435038	23.237395	11.908611	-0.017817	0.265063	2.843194	0.000000	0.007792	0.000000	-0.000009	-0.000000	0.000000	0.000000
68.768372	23.254056	11.741888	-0.032166	0.235105	2.845792	0.000000	0.007792	0.000000	-0.000009	-0.000000	0.000000	0.000000
69.101705	23.280283	11.595137	-0.046516	0.205148	2.848389	0.000000	0.007792	0.000000	-0.000009	-0.000000	0.000000	0.000000
69.436288	23.316229	11.467920	-0.060919	0.175078	2.850996	0.000000	0.007792	0.000000	-0.000009	-0.000000	0.000000	0.000000
69.733611	23.356259	11.371756	-0.134748	0.178071	2.853313	0.000000	0.015247	0.000000	-0.000009	-0.000000	0.000000	0.000000
70.282671	23.103103	11.403906	0.593091	-0.236972	2.838503	0.000000	-0.069113	0.000000	-0.000009	0.000000	0.000000	0.000000
