#ParticleID	Turn	x[m]	xp	y[m]	yp	z[m]	dE[GeV]# s	beta_x	beta_y	alpha_x	alpha_y	D_x	D_y	D_px	D_py	orbit_x	orbit_px	orbit_y	orbit_py
0.300000	11.832654	24.945326	-0.013470	-0.027773	2.618303	0.000000	-0.000061	0.000000	0.000001	0.000000	0.000000	0.000000
0.601250	11.848441	24.965699	-0.038934	-0.039858	2.618284	0.000000	-0.000061	0.000000	0.000001	0.000000	0.000000	0.000000
0.898573	11.879065	24.992948	-0.034935	-0.113076	2.618266	0.000000	-0.006482	0.000000	0.000001	0.000000	0.000000	0.000000
1.339533	12.062240	24.815474	-0.382042	0.514016	2.631702	0.000000	0.067479	0.000000	0.000001	0.000000	0.000000	0.000000
1.780493	12.558047	24.093194	-0.746603	1.117722	2.677889	0.000000	0.142208	0.000000	0.000001	0.000000	0.000000	0.000000
2.221453	13.389136	22.858971	-1.145274	1.670572	2.757355	0.000000	0.218557	0.000000	0.000001	0.000000	0.000000	0.000000
2.662413	14.593478	21.168962	-1.596269	2.147412	2.871004	0.000000	0.297395	0.000000	0.000001	0.000000	0.000000	0.000000
3.108373	16.246908	19.075273	-2.124494	2.527676	3.021992	0.000000	0.380111	0.000000	0.000001	0.000000	0.000000	0.000000
3.657433	18.367106	16.723873	-1.714152	1.780196	3.205424	0.000000	0.287073	0.000000	0.000001	0.000000	0.000000	0.000000
4.206493	19.967141	15.119266	-1.182731	1.159516	3.336297	0.000000	0.188944	0.000000	0.000001	0.000000	0.000000	0.000000
4.755553	20.933993	14.147161	-0.567768	0.621425	3.412291	0.000000	0.087463	0.000000	0.000001	0.000000	0.000000	0.000000
5.304613	21.199370	13.738317	0.087300	0.127597	3.432057	0.000000	-0.015569	0.000000	0.000001	0.000000	0.000000	0.000000
5.603185	21.184524	13.647350	0.017812	0.141178	3.430086	0.000000	-0.006602	0.000000	0.000001	0.000000	0.000000	0.000000
5.936519	21.177896	13.561535	0.002072	0.116267	3.427885	0.000000	-0.006602	0.000000	0.000001	0.000000	0.000000	0.000000
6.269852	21.181761	13.492328	-0.013668	0.091355	3.425685	0.000000	-0.006602	0.000000	0.000001	0.000000	0.000000	0.000000
6.604435	21.196193	13.439562	-0.029466	0.066350	3.423476	0.000000	-0.006602	0.000000	0.000001	0.000000	0.000000	0.000000
6.901758	21.217889	13.406714	-0.098943	0.079159	3.421513	0.000000	0.002338	0.000000	0.000001	0.000000	0.000000	0.000000
7.450818	20.964839	13.580253	0.557095	-0.397090	3.394597	0.000000	-0.100237	0.000000	0.000001	0.000000	0.000000	0.000000
7.999878	20.008825	14.289139	1.173782	-0.901622	3.311767	0.000000	-0.201034	0.000000	0.000001	-0.000000	0.000000	0.000000
8.548938	18.417374	15.583864	1.707560	-1.470374	3.174493	0.000000	-0.298264	0.000000	0.000001	-0.000000	0.000000	0.000000
9.097998	16.302900	17.556650	2.120724	-2.143858	2.985209	0.000000	-0.390205	0.000000	0.000001	-0.000000	0.000000	0.000000
9.543958	14.653079	19.314576	1.591911	-1.781375	2.829498	0.000000	-0.308505	0.000000	0.000001	-0.000000	0.000000	0.000000
9.984918	13.452913	20.695824	1.140127	-1.339070	2.710705	0.000000	-0.230803	0.000000	0.000001	-0.000000	0.000000	0.000000
10.425878	12.626795	21.658535	0.740432	-0.835838	2.625563	0.000000	-0.155730	0.000000	0.000001	-0.000000	0.000000	0.000000
10.866838	12.136984	22.158906	0.374566	-0.294576	2.573103	0.000000	-0.082431	0.000000	0.000001	0.000000	0.000000	0.000000
11.309048	11.960962	22.173657	0.055039	0.205653	2.552707	0.000000	-0.016330	0.000000	0.000001	0.000000	0.000000	0.000000
11.606371	11.935647	22.055522	0.030106	0.191678	2.547852	0.000000	-0.016330	0.000000	0.000001	0.000000	0.000000	0.000000
12.086371	11.926066	21.882341	-0.010146	0.169115	2.540014	0.000000	-0.016330	0.000000	0.000001	0.000000	0.000000	0.000000
12.566371	11.955127	21.730821	-0.050398	0.146552	2.532175	0.000000	-0.016330	0.000000	0.000001	0.000000	0.000000	0.000000
13.046371	12.022830	21.600962	-0.090650	0.123989	2.524337	0.000000	-0.016330	0.000000	0.000001	0.000000	0.000000	0.000000
13.526371	12.129175	21.492762	-0.130902	0.101426	2.516498	0.000000	-0.016330	0.000000	0.000001	0.000000	0.000000	0.000000
14.007621	12.274590	21.406026	-0.171259	0.078805	2.508640	0.000000	-0.016330	0.000000	0.000001	0.000000	0.000000	0.000000
14.304943	12.383842	21.363321	-0.165824	0.012440	2.503784	0.000000	-0.022470	0.000000	0.000001	0.000000	0.000000	0.000000
14.745903	12.688837	21.118498	-0.528461	0.540651	2.509505	0.000000	0.048440	0.000000	0.000001	0.000000	0.000000	0.000000
15.186863	13.323046	20.416945	-0.915242	1.044263	2.546585	0.000000	0.119902	0.000000	0.000001	0.000000	0.000000	0.000000
15.627823	14.315445	19.290580	-1.343838	1.500362	2.615449	0.000000	0.192729	0.000000	0.000001	0.000000	0.000000	0.000000
16.068783	15.711374	17.790654	-1.833830	1.888196	2.716879	0.000000	0.267752	0.000000	0.000001	0.000000	0.000000	0.000000
16.514743	17.598263	15.963911	-2.412363	2.190868	2.853726	0.000000	0.346286	0.000000	0.000002	0.000000	0.000000	0.000000
17.063803	20.021410	13.924046	-1.974776	1.546259	3.020133	0.000000	0.258976	0.000000	0.000002	0.000000	0.000000	0.000000
17.612863	21.884129	12.527767	-1.397702	1.011786	3.137269	0.000000	0.167073	0.000000	0.000002	0.000000	0.000000	0.000000
18.161923	23.054848	11.675623	-0.721900	0.549381	3.203055	0.000000	0.072206	0.000000	0.000002	0.000000	0.000000	0.000000
18.710983	23.450873	11.306915	0.004892	0.126107	3.216325	0.000000	-0.023941	0.000000	0.000002	-0.000000	0.000000	0.000000
19.009556	23.488353	11.222045	-0.069152	0.128604	3.211686	0.000000	-0.015537	0.000000	0.000002	-0.000000	0.000000	0.000000
19.342889	23.539207	11.146374	-0.083411	0.098409	3.206507	0.000000	-0.015537	0.000000	0.000002	-0.000000	0.000000	0.000000
19.676223	23.599568	11.090833	-0.097670	0.068214	3.201328	0.000000	-0.015537	0.000000	0.000002	-0.000000	0.000000	0.000000
20.010806	23.670008	11.055190	-0.229258	0.092681	3.196149	0.000000	0.000298	0.000000	0.000002	0.000000	0.000000	0.000000
20.308129	23.810266	11.008143	-0.304690	0.094317	3.196237	0.000000	0.008649	0.000000	0.000002	0.000000	0.000000	0.000000
20.857189	23.734196	11.127159	0.442416	-0.312361	3.174775	0.000000	-0.086715	0.000000	0.000002	-0.000000	0.000000	0.000000
21.406249	22.850089	11.702280	1.158271	-0.741287	3.101297	0.000000	-0.180540	0.000000	0.000002	-0.000000	0.000000	0.000000
21.955309	21.220395	12.774471	1.792312	-1.223014	2.977108	0.000000	-0.271164	0.000000	0.000002	-0.000000	0.000000	0.000000
22.504369	18.960227	14.420101	2.299753	-1.791854	2.804410	0.000000	-0.356977	0.000000	0.000001	-0.000000	0.000000	0.000000
22.950329	17.179193	15.897390	1.708054	-1.506777	2.662502	0.000000	-0.279788	0.000000	0.000001	-0.000000	0.000000	0.000000
23.391289	15.902105	17.075169	1.199088	-1.154001	2.555444	0.000000	-0.206240	0.000000	0.000001	-0.000000	0.000000	0.000000
23.832249	15.048121	17.917398	0.744906	-0.748719	2.480270	0.000000	-0.135041	0.000000	0.000001	-0.000000	0.000000	0.000000
24.273209	14.578225	18.385756	0.324756	-0.309371	2.436124	0.000000	-0.065380	0.000000	0.000001	-0.000000	0.000000	0.000000
24.715418	14.471063	18.458686	-0.045157	0.098719	2.422498	0.000000	-0.002404	0.000000	0.000001	-0.000000	0.000000	0.000000
25.012741	14.504036	18.404819	-0.065744	0.082454	2.421784	0.000000	-0.002404	0.000000	0.000001	-0.000000	0.000000	0.000000
25.346075	14.555560	18.355928	-0.088826	0.064220	2.420982	0.000000	-0.002404	0.000000	0.000001	-0.000000	0.000000	0.000000
25.679408	14.622471	18.319193	-0.111907	0.045986	2.420181	0.000000	-0.002404	0.000000	0.000001	-0.000000	0.000000	0.000000
26.013991	14.704809	18.294915	-0.015780	-0.120734	2.419352	0.000000	-0.022031	0.000000	0.000001	-0.000000	0.000000	0.000000
26.311314	14.720206	18.371612	0.000093	-0.182275	2.412802	0.000000	-0.027948	0.000000	0.000001	-0.000000	0.000000	0.000000
26.752274	14.901513	18.333063	-0.412819	0.269363	2.415584	0.000000	0.040578	0.000000	0.000001	-0.000000	0.000000	0.000000
27.193234	15.453886	17.900110	-0.844592	0.708745	2.448656	0.000000	0.109567	0.000000	0.000001	0.000000	0.000000	0.000000
27.634194	16.402559	17.092450	-1.314952	1.115879	2.512396	0.000000	0.179804	0.000000	0.000001	0.000000	0.000000	0.000000
28.075154	17.790876	15.946832	-1.845388	1.472242	2.607529	0.000000	0.252089	0.000000	0.000001	0.000000	0.000000	0.000000
28.521114	19.706391	14.498128	-2.465089	1.762534	2.736742	0.000000	0.327688	0.000000	0.000001	0.000000	0.000000	0.000000
29.070174	22.141015	12.883809	-1.942829	1.194971	2.894006	0.000000	0.244316	0.000000	0.000001	0.000000	0.000000	0.000000
29.619234	23.922922	11.842626	-1.283338	0.712524	3.004235	0.000000	0.156612	0.000000	0.000001	0.000000	0.000000	0.000000
30.168294	24.926248	11.300417	-0.533197	0.280828	3.065474	0.000000	0.066129	0.000000	0.000001	-0.000000	0.000000	0.000000
30.717354	25.080123	11.218562	0.254605	-0.130866	3.076637	0.000000	-0.025526	0.000000	0.000001	-0.000000	0.000000	0.000000
31.015927	24.970898	11.287233	0.176746	-0.128443	3.071416	0.000000	-0.017487	0.000000	0.000001	-0.000000	0.000000	0.000000
31.349260	24.857656	11.382868	0.162980	-0.158462	3.065587	0.000000	-0.017487	0.000000	0.000001	-0.000000	0.000000	0.000000
31.682593	24.753592	11.498515	0.149214	-0.188481	3.059758	0.000000	-0.017487	0.000000	0.000001	-0.000000	0.000000	0.000000
32.017177	24.658366	11.634722	0.135396	-0.218613	3.053907	0.000000	-0.017487	0.000000	0.000001	-0.000000	0.000000	0.000000
32.314499	24.581504	11.772680	0.058891	-0.214629	3.048707	0.000000	-0.009522	0.000000	0.000001	-0.000000	0.000000	0.000000
32.863559	24.095753	12.247738	0.820567	-0.655699	3.018605	0.000000	-0.099966	0.000000	0.000001	-0.000000	0.000000	0.000000
33.412619	22.800622	13.229794	1.524283	-1.143473	2.939259	0.000000	-0.188636	0.000000	0.000001	-0.000000	0.000000	0.000000
33.961679	20.787595	14.788799	2.120330	-1.712693	2.812075	0.000000	-0.273961	0.000000	0.000001	-0.000000	0.000000	0.000000
34.510739	18.198860	17.035795	2.566608	-2.403905	2.639310	0.000000	-0.354426	0.000000	0.000001	-0.000000	0.000000	0.000000
34.956699	16.186168	19.045569	1.962729	-2.083900	2.497587	0.000000	-0.281517	0.000000	0.000001	-0.000000	0.000000	0.000000
35.397659	14.685431	20.707136	1.453523	-1.669829	2.388827	0.000000	-0.212242	0.000000	0.000001	-0.000000	0.000000	0.000000
35.838619	13.602904	21.968500	1.010724	-1.179781	2.310052	0.000000	-0.145385	0.000000	0.000001	-0.000000	0.000000	0.000000
36.279579	12.889129	22.772269	0.614102	-0.636055	2.260366	0.000000	-0.080184	0.000000	0.000001	-0.000000	0.000000	0.000000
36.721789	12.510805	23.082174	0.276110	-0.120046	2.239176	0.000000	-0.021387	0.000000	0.000001	-0.000000	0.000000	0.000000
37.019112	12.354222	23.157444	0.250533	-0.133113	2.232817	0.000000	-0.021387	0.000000	0.000001	-0.000000	0.000000	0.000000
37.352445	12.196758	23.251069	0.221858	-0.147762	2.225688	0.000000	-0.021387	0.000000	0.000000	-0.000000	0.000000	0.000000
37.685779	12.058411	23.354460	0.193183	-0.162412	2.218559	0.000000	-0.021387	0.000000	0.000000	-0.000000	0.000000	0.000000
38.020362	11.938769	23.468060	0.164401	-0.177116	2.211404	0.000000	-0.021387	0.000000	0.000000	-0.000000	0.000000	0.000000
38.317684	11.848613	23.577266	0.167880	-0.248001	2.205045	0.000000	-0.026794	0.000000	0.000000	-0.000000	0.000000	0.000000
38.758644	11.851701	23.534856	-0.174909	0.343813	2.207154	0.000000	0.036368	0.000000	0.000000	-0.000000	0.000000	0.000000
39.199604	12.159469	22.975443	-0.525689	0.919984	2.237180	0.000000	0.099944	0.000000	0.000000	-0.000000	0.000000	0.000000
39.640564	12.785978	21.924481	-0.900486	1.454296	2.295464	0.000000	0.164659	0.000000	0.000000	-0.000000	0.000000	0.000000
40.081524	13.759853	20.429789	-1.316424	1.922438	2.382671	0.000000	0.231249	0.000000	0.000000	-0.000000	0.000000	0.000000
40.527484	15.143146	18.536805	-1.796329	2.304389	2.501265	0.000000	0.300878	0.000000	0.000000	-0.000000	0.000000	0.000000
41.076544	16.908676	16.409675	-1.400185	1.592609	2.645941	0.000000	0.225340	0.000000	0.000000	-0.000000	0.000000	0.000000
41.625604	18.181974	14.997660	-0.905139	0.994266	2.747982	0.000000	0.145806	0.000000	0.000000	-0.000000	0.000000	0.000000
42.174664	18.873103	14.200186	-0.346159	0.466743	2.805579	0.000000	0.063685	0.000000	0.000000	-0.000000	0.000000	0.000000
42.723724	18.933244	13.960450	0.237273	-0.027535	2.817709	0.000000	-0.019565	0.000000	0.000000	-0.000000	0.000000	0.000000
43.022297	18.825972	13.961497	0.171478	-0.012448	2.814066	0.000000	-0.012203	0.000000	0.000000	-0.000000	0.000000	0.000000
43.502297	18.673952	13.989952	0.145231	-0.046834	2.808209	0.000000	-0.012203	0.000000	-0.000000	-0.000000	0.000000	0.000000
43.982297	18.547128	14.051417	0.118985	-0.081219	2.802351	0.000000	-0.012203	0.000000	-0.000000	-0.000000	0.000000	0.000000
44.462297	18.445501	14.145893	0.092739	-0.115605	2.796494	0.000000	-0.012203	0.000000	-0.000000	-0.000000	0.000000	0.000000
44.942297	18.369070	14.273378	0.066492	-0.149990	2.790637	0.000000	-0.012203	0.000000	-0.000000	-0.000000	0.000000	0.000000
45.423547	18.317962	14.434157	-0.050580	-0.112950	2.784782	0.000000	0.001595	0.000000	-0.000000	-0.000000	0.000000	0.000000
45.720870	18.352877	14.507524	-0.114805	-0.095906	2.785256	0.000000	0.008872	0.000000	-0.000000	-0.000000	0.000000	0.000000
46.269930	18.169914	14.893516	0.446063	-0.611249	2.767560	0.000000	-0.073236	0.000000	-0.000000	-0.000000	0.000000	0.000000
46.818990	17.384785	15.865860	0.975424	-1.170130	2.705072	0.000000	-0.154046	0.000000	-0.000000	-0.000000	0.000000	0.000000
47.368050	16.052947	17.493814	1.435886	-1.812356	2.598901	0.000000	-0.232123	0.000000	-0.000000	-0.000000	0.000000	0.000000
47.917110	14.268475	19.893334	1.794924	-2.583673	2.450930	0.000000	-0.306083	0.000000	-0.000000	-0.000000	0.000000	0.000000
48.363070	12.879652	22.026837	1.330342	-2.180281	2.329719	0.000000	-0.237794	0.000000	-0.000000	-0.000000	0.000000	0.000000
48.804030	11.886564	23.735106	0.930305	-1.678956	2.239319	0.000000	-0.172610	0.000000	-0.000000	-0.000000	0.000000	0.000000
49.244990	11.226272	24.965744	0.572772	-1.101240	2.177203	0.000000	-0.109392	0.000000	-0.000000	-0.000000	0.000000	0.000000
49.685950	10.868608	25.662758	0.241407	-0.473418	2.142661	0.000000	-0.047420	0.000000	-0.000000	-0.000000	0.000000	0.000000
50.128160	10.797364	25.794152	-0.052566	0.112638	2.135314	0.000000	0.008775	0.000000	-0.000001	-0.000000	0.000000	0.000000
50.425482	10.836832	25.730642	-0.080179	0.100965	2.137923	0.000000	0.008775	0.000000	-0.000001	-0.000000	0.000000	0.000000
50.758816	10.900604	25.667694	-0.111136	0.087879	2.140848	0.000000	0.008775	0.000000	-0.000001	-0.000000	0.000000	0.000000
51.092149	10.985014	25.613471	-0.142093	0.074792	2.143773	0.000000	0.008775	0.000000	-0.000001	-0.000000	0.000000	0.000000
51.426732	11.090269	25.568336	-0.083195	-0.145767	2.146687	0.000000	-0.008640	0.000000	-0.000001	-0.000000	0.000000	0.000000
51.724055	11.147767	25.658547	-0.082852	-0.220565	2.144118	0.000000	-0.013898	0.000000	-0.000001	-0.000000	0.000000	0.000000
52.165015	11.366347	25.567645	-0.414721	0.425925	2.151577	0.000000	0.047762	0.000000	-0.000001	-0.000000	0.000000	0.000000
52.605975	11.884827	24.912991	-0.765537	1.053036	2.186320	0.000000	0.109967	0.000000	-0.000001	-0.000000	0.000000	0.000000
53.046935	12.726893	23.724371	-1.151328	1.632235	2.248743	0.000000	0.173423	0.000000	-0.000001	-0.000000	0.000000	0.000000
53.487895	13.931017	22.055865	-1.589720	2.137169	2.339556	0.000000	0.238855	0.000000	-0.000001	-0.000000	0.000000	0.000000
53.933855	15.572847	19.958440	-2.104982	2.546196	2.461298	0.000000	0.307407	0.000000	-0.000001	-0.000000	0.000000	0.000000
54.482915	17.686588	17.598418	-1.721974	1.777472	2.609902	0.000000	0.233100	0.000000	-0.000001	-0.000000	0.000000	0.000000
55.031975	19.310055	16.008488	-1.217334	1.135352	2.716511	0.000000	0.154660	0.000000	-0.000001	-0.000000	0.000000	0.000000
55.581035	20.328574	15.075403	-0.626709	0.574101	2.779234	0.000000	0.073476	0.000000	-0.000001	-0.000000	0.000000	0.000000
56.130095	20.670203	14.732702	0.008185	0.053742	2.796957	0.000000	-0.009011	0.000000	-0.000001	-0.000000	0.000000	0.000000
56.428668	20.701888	14.683725	-0.060298	0.071798	2.796449	0.000000	-0.001703	0.000000	-0.000001	-0.000000	0.000000	0.000000
56.762001	20.747473	14.643466	-0.076458	0.048980	2.795881	0.000000	-0.001703	0.000000	-0.000001	-0.000000	0.000000	0.000000
57.095334	20.803832	14.618418	-0.092618	0.026163	2.795313	0.000000	-0.001703	0.000000	-0.000001	-0.000000	0.000000	0.000000
57.429918	20.871237	14.608574	-0.108839	0.003259	2.794743	0.000000	-0.001703	0.000000	-0.000001	-0.000000	0.000000	0.000000
57.727240	20.940243	14.612687	-0.177967	0.021087	2.794237	0.000000	0.005598	0.000000	-0.000001	-0.000000	0.000000	0.000000
58.276300	20.778351	14.870226	0.471076	-0.492909	2.774669	0.000000	-0.076772	0.000000	-0.000001	-0.000000	0.000000	0.000000
58.825360	19.917865	15.708046	1.086844	-1.042015	2.710182	0.000000	-0.157779	0.000000	-0.000001	0.000000	0.000000	0.000000
59.374420	18.419568	17.185823	1.625843	-1.665340	2.601922	0.000000	-0.235988	0.000000	-0.000001	0.000000	0.000000	0.000000
59.923480	16.389291	19.408816	2.050001	-2.407284	2.451808	0.000000	-0.310011	0.000000	-0.000001	0.000000	0.000000	0.000000
60.369440	14.800089	21.384721	1.526171	-2.004692	2.328847	0.000000	-0.241722	0.000000	-0.000001	0.000000	0.000000	0.000000
60.810400	13.656849	22.941479	1.076281	-1.512258	2.236707	0.000000	-0.176583	0.000000	-0.000001	0.000000	0.000000	0.000000
61.251360	12.887275	24.031834	0.675564	-0.951016	2.172820	0.000000	-0.113455	0.000000	-0.000001	0.000000	0.000000	0.000000
61.692320	12.456208	24.606174	0.305711	-0.346505	2.136459	0.000000	-0.051620	0.000000	-0.000001	-0.000000	0.000000	0.000000
62.134530	12.344003	24.637835	-0.020005	0.213298	2.127215	0.000000	0.004411	0.000000	-0.000001	-0.000000	0.000000	0.000000
62.431853	12.363063	24.514750	-0.044101	0.200681	2.128526	0.000000	0.004411	0.000000	-0.000001	-0.000000	0.000000	0.000000
62.765186	12.401468	24.385677	-0.071116	0.186537	2.129996	0.000000	0.004411	0.000000	-0.000001	-0.000000	0.000000	0.000000
63.098520	12.457884	24.266034	-0.098130	0.172392	2.131467	0.000000	0.004411	0.000000	-0.000001	-0.000000	0.000000	0.000000
63.433103	12.532622	24.155426	-0.125246	0.158194	2.132943	0.000000	0.004411	0.000000	-0.000001	-0.000000	0.000000	0.000000
63.730426	12.614263	24.065108	-0.118408	0.086562	2.134254	0.000000	-0.000823	0.000000	-0.000001	-0.000000	0.000000	0.000000
64.171386	12.879250	23.723721	-0.484805	0.684682	2.147434	0.000000	0.060657	0.000000	-0.000001	-0.000000	0.000000	0.000000
64.612346	13.475879	22.866615	-0.873351	1.251650	2.187850	0.000000	0.122828	0.000000	-0.000001	-0.000000	0.000000	0.000000
65.053306	14.431407	21.532786	-1.301798	1.761669	2.255963	0.000000	0.186397	0.000000	-0.000001	-0.000000	0.000000	0.000000
65.494266	15.789491	19.782923	-1.789721	2.191533	2.352549	0.000000	0.252090	0.000000	-0.000001	-0.000000	0.000000	0.000000
65.940226	17.635349	17.671871	-2.364105	2.522442	2.480280	0.000000	0.321055	0.000000	-0.000002	-0.000000	0.000000	0.000000
66.489286	20.001313	15.310171	-1.919504	1.804300	2.636188	0.000000	0.246016	0.000000	-0.000002	-0.000000	0.000000	0.000000
67.038346	21.801256	13.662300	-1.339318	1.214674	2.749634	0.000000	0.166613	0.000000	-0.000002	-0.000000	0.000000	0.000000
67.587406	22.908041	12.610885	-0.664530	0.711566	2.818606	0.000000	0.084254	0.000000	-0.000002	-0.000000	0.000000	0.000000
68.136466	23.243489	12.081035	0.057197	0.259142	2.841880	0.000000	0.000402	0.000000	-0.000002	0.000000	0.000000	0.000000
68.435038	23.249435	11.915443	-0.016380	0.263905	2.844217	0.000000	0.007827	0.000000	-0.000002	0.000000	0.000000	0.000000
68.768372	23.265135	11.749480	-0.030721	0.233982	2.846826	0.000000	0.007827	0.000000	-0.000002	0.000000	0.000000	0.000000
69.101705	23.290396	11.603467	-0.045062	0.204059	2.849435	0.000000	0.007827	0.000000	-0.000002	0.000000	0.000000	0.000000
69.436288	23.325367	11.476967	-0.059457	0.174023	2.852054	0.000000	0.007827	0.000000	-0.000002	0.000000	0.000000	0.000000
69.733611	23.364526	11.381421	-0.133297	0.177071	2.854381	0.000000	0.015285	0.000000	-0.000002	0.000000	0.000000	0.000000
70.282671	23.109640	11.414822	0.594772	-0.238264	2.839583	0.000000	-0.069110	0.000000	-0.000002	0.000000	0.000000	0.000000
