#ParticleID	Turn	x[m]	xp	y[m]	yp	z[m]	dE[GeV]# s	beta_x	beta_y	alpha_x	alpha_y	D_x	D_y	D_px	D_py	orbit_x	orbit_px	orbit_y	orbit_py
0.300000	11.831946	24.947709	-0.013372	-0.027766	2.618285	0.000000	-0.000055	0.000000	0.000001	0.000000	0.000000	0.000000
0.601250	11.847674	24.968079	-0.038837	-0.039851	2.618269	0.000000	-0.000055	0.000000	0.000001	0.000000	0.000000	0.000000
0.898573	11.878241	24.995322	-0.034842	-0.113073	2.618252	0.000000	-0.006475	0.000000	0.000001	0.000000	0.000000	0.000000
1.339533	12.061325	24.817817	-0.381927	0.514082	2.631691	0.000000	0.067485	0.000000	0.000001	0.000000	0.000000	0.000000
1.780493	12.557019	24.095453	-0.746462	1.117847	2.677881	0.000000	0.142214	0.000000	0.000001	0.000000	0.000000	0.000000
2.221453	13.387969	22.861095	-1.145100	1.670751	2.757350	0.000000	0.218563	0.000000	0.000001	0.000000	0.000000	0.000000
2.662413	14.592141	21.170907	-1.596054	2.147637	2.871001	0.000000	0.297401	0.000000	0.000001	0.000000	0.000000	0.000000
3.108373	16.245357	19.077000	-2.124228	2.527937	3.021991	0.000000	0.380116	0.000000	0.000001	0.000000	0.000000	0.000000
3.657433	18.365283	16.725350	-1.713925	1.780391	3.205426	0.000000	0.287079	0.000000	0.000002	0.000000	0.000000	0.000000
4.206493	19.965097	15.120559	-1.182559	1.159659	3.336303	0.000000	0.188949	0.000000	0.000002	0.000000	0.000000	0.000000
4.755553	20.931796	14.148321	-0.567663	0.621526	3.412299	0.000000	0.087468	0.000000	0.000002	0.000000	0.000000	0.000000
5.304613	21.197097	13.739385	0.087331	0.127663	3.432068	0.000000	-0.015564	0.000000	0.000002	0.000000	0.000000	0.000000
5.603185	21.182230	13.648378	0.017847	0.141249	3.430098	0.000000	-0.006597	0.000000	0.000002	0.000000	0.000000	0.000000
5.936519	21.175579	13.562515	0.002106	0.116338	3.427899	0.000000	-0.006597	0.000000	0.000002	0.000000	0.000000	0.000000
6.269852	21.179422	13.493260	-0.013635	0.091428	3.425700	0.000000	-0.006597	0.000000	0.000002	0.000000	0.000000	0.000000
6.604435	21.193833	13.440445	-0.029436	0.066425	3.423493	0.000000	-0.006597	0.000000	0.000002	0.000000	0.000000	0.000000
6.901758	21.215512	13.407552	-0.098908	0.079236	3.421532	0.000000	0.002343	0.000000	0.000002	0.000000	0.000000	0.000000
7.450818	20.962466	13.581018	0.557050	-0.397034	3.394618	0.000000	-0.100233	0.000000	0.000002	-0.000000	0.000000	0.000000
7.999878	20.006544	14.289854	1.173661	-0.901585	3.311791	0.000000	-0.201030	0.000000	0.000002	-0.000000	0.000000	0.000000
8.548938	18.415265	15.584549	1.707370	-1.470353	3.174518	0.000000	-0.298262	0.000000	0.000002	-0.000000	0.000000	0.000000
9.097998	16.301031	17.557319	2.120479	-2.143852	2.985235	0.000000	-0.390203	0.000000	0.000002	-0.000000	0.000000	0.000000
9.543958	14.651403	19.315230	1.591721	-1.781346	2.829526	0.000000	-0.308503	0.000000	0.000002	-0.000000	0.000000	0.000000
9.984918	13.451384	20.696442	1.139982	-1.339019	2.710733	0.000000	-0.230800	0.000000	0.000002	-0.000000	0.000000	0.000000
10.425878	12.625377	21.659099	0.740326	-0.835767	2.625593	0.000000	-0.155726	0.000000	0.000001	-0.000000	0.000000	0.000000
10.866838	12.135644	22.159401	0.374494	-0.294489	2.573135	0.000000	-0.082426	0.000000	0.000001	-0.000000	0.000000	0.000000
11.309048	11.959673	22.174070	0.054994	0.205752	2.552742	0.000000	-0.016324	0.000000	0.000001	0.000000	0.000000	0.000000
11.606371	11.934385	22.055876	0.030059	0.191775	2.547889	0.000000	-0.016324	0.000000	0.000001	0.000000	0.000000	0.000000
12.086371	11.924851	21.882602	-0.010198	0.169212	2.540053	0.000000	-0.016324	0.000000	0.000001	0.000000	0.000000	0.000000
12.566371	11.953964	21.730989	-0.050454	0.146649	2.532217	0.000000	-0.016324	0.000000	0.000001	0.000000	0.000000	0.000000
13.046371	12.021723	21.601037	-0.090710	0.124085	2.524382	0.000000	-0.016324	0.000000	0.000001	0.000000	0.000000	0.000000
13.526371	12.128127	21.492745	-0.130966	0.101522	2.516546	0.000000	-0.016324	0.000000	0.000001	0.000000	0.000000	0.000000
14.007621	12.273606	21.405917	-0.171327	0.078900	2.508690	0.000000	-0.016324	0.000000	0.000001	0.000000	0.000000	0.000000
14.304943	12.382899	21.363155	-0.165897	0.012536	2.503836	0.000000	-0.022464	0.000000	0.000001	-0.000000	0.000000	0.000000
14.745903	12.687950	21.118250	-0.528515	0.540740	2.509559	0.000000	0.048447	0.000000	0.000001	0.000000	0.000000	0.000000
15.186863	13.322199	20.416622	-0.915279	1.044342	2.546643	0.000000	0.119910	0.000000	0.000001	0.000000	0.000000	0.000000
15.627823	14.314625	19.290195	-1.343860	1.500426	2.615511	0.000000	0.192739	0.000000	0.000002	0.000000	0.000000	0.000000
16.068783	15.710567	17.790220	-1.833838	1.888242	2.716946	0.000000	0.267763	0.000000	0.000002	0.000000	0.000000	0.000000
16.514743	17.597458	15.963444	-2.412357	2.190895	2.853798	0.000000	0.346299	0.000000	0.000002	0.000000	0.000000	0.000000
17.063803	20.020618	13.923545	-1.974806	1.546292	3.020212	0.000000	0.258987	0.000000	0.000002	0.000000	0.000000	0.000000
17.612863	21.883388	12.527226	-1.397764	1.011828	3.137353	0.000000	0.167081	0.000000	0.000002	0.000000	0.000000	0.000000
18.161923	23.054191	11.675029	-0.721991	0.549435	3.203143	0.000000	0.072212	0.000000	0.000002	0.000000	0.000000	0.000000
18.710983	23.450328	11.306254	0.004780	0.126176	3.216415	0.000000	-0.023938	0.000000	0.000002	-0.000000	0.000000	0.000000
19.009556	23.487874	11.221345	-0.069263	0.128669	3.211777	0.000000	-0.015535	0.000000	0.000002	-0.000000	0.000000	0.000000
19.342889	23.538803	11.145631	-0.083523	0.098472	3.206599	0.000000	-0.015535	0.000000	0.000002	-0.000000	0.000000	0.000000
19.676223	23.599239	11.090049	-0.097783	0.068275	3.201421	0.000000	-0.015535	0.000000	0.000002	-0.000000	0.000000	0.000000
20.010806	23.669754	11.054366	-0.229369	0.092735	3.196243	0.000000	0.000302	0.000000	0.000002	-0.000000	0.000000	0.000000
20.308129	23.810078	11.007288	-0.304802	0.094366	3.196332	0.000000	0.008653	0.000000	0.000002	-0.000000	0.000000	0.000000
20.857189	23.734134	11.126237	0.442300	-0.312286	3.174871	0.000000	-0.086714	0.000000	0.000002	-0.000000	0.000000	0.000000
21.406249	22.850153	11.701260	1.158160	-0.741182	3.101392	0.000000	-0.180543	0.000000	0.000002	-0.000000	0.000000	0.000000
21.955309	21.220575	12.773315	1.792213	-1.222871	2.977201	0.000000	-0.271169	0.000000	0.000002	-0.000000	0.000000	0.000000
22.504369	18.960506	14.418763	2.299673	-1.791663	2.804500	0.000000	-0.356986	0.000000	0.000002	-0.000000	0.000000	0.000000
22.950329	17.179542	15.895895	1.707975	-1.506616	2.662588	0.000000	-0.279795	0.000000	0.000001	-0.000000	0.000000	0.000000
23.391289	15.902523	17.073547	1.199008	-1.153877	2.555528	0.000000	-0.206244	0.000000	0.000001	-0.000000	0.000000	0.000000
23.832249	15.048612	17.915685	0.744820	-0.748638	2.480352	0.000000	-0.135043	0.000000	0.000001	-0.000000	0.000000	0.000000
24.273209	14.578796	18.383992	0.324661	-0.309337	2.436205	0.000000	-0.065380	0.000000	0.000001	-0.000000	0.000000	0.000000
24.715418	14.471723	18.456913	-0.045264	0.098709	2.422581	0.000000	-0.002402	0.000000	0.000001	-0.000000	0.000000	0.000000
25.012741	14.504760	18.403052	-0.065851	0.082443	2.421866	0.000000	-0.002402	0.000000	0.000001	-0.000000	0.000000	0.000000
25.346075	14.556354	18.354168	-0.088931	0.064207	2.421066	0.000000	-0.002402	0.000000	0.000001	-0.000000	0.000000	0.000000
25.679408	14.623336	18.317442	-0.112012	0.045971	2.420265	0.000000	-0.002402	0.000000	0.000001	-0.000000	0.000000	0.000000
26.013991	14.705743	18.293175	-0.015877	-0.120736	2.419437	0.000000	-0.022030	0.000000	0.000001	-0.000000	0.000000	0.000000
26.311314	14.721197	18.369873	0.000000	-0.182274	2.412887	0.000000	-0.027947	0.000000	0.000001	-0.000000	0.000000	0.000000
26.752274	14.902598	18.331344	-0.412938	0.269316	2.415670	0.000000	0.040582	0.000000	0.000001	-0.000000	0.000000	0.000000
27.193234	15.455088	17.898451	-0.844742	0.708654	2.448744	0.000000	0.109573	0.000000	0.000001	-0.000000	0.000000	0.000000
27.634194	16.403910	17.090890	-1.315140	1.115747	2.512487	0.000000	0.179812	0.000000	0.000001	-0.000000	0.000000	0.000000
28.075154	17.792412	15.945405	-1.845623	1.472076	2.607624	0.000000	0.252099	0.000000	0.000001	0.000000	0.000000	0.000000
28.521114	19.708162	14.496862	-2.465382	1.762340	2.736842	0.000000	0.327700	0.000000	0.000001	0.000000	0.000000	0.000000
29.070174	22.143084	12.882729	-1.943077	1.194824	2.894112	0.000000	0.244326	0.000000	0.000001	0.000000	0.000000	0.000000
29.619234	23.925231	11.841687	-1.283523	0.712413	3.004345	0.000000	0.156618	0.000000	0.000001	-0.000000	0.000000	0.000000
30.168294	24.928720	11.299583	-0.533308	0.280745	3.065587	0.000000	0.066132	0.000000	0.000001	-0.000000	0.000000	0.000000
30.717354	25.082671	11.217806	0.254578	-0.130925	3.076750	0.000000	-0.025527	0.000000	0.000001	-0.000000	0.000000	0.000000
31.015927	24.973466	11.286514	0.176713	-0.128506	3.071529	0.000000	-0.017489	0.000000	0.000001	-0.000000	0.000000	0.000000
31.349260	24.860245	11.382192	0.162949	-0.158528	3.065699	0.000000	-0.017489	0.000000	0.000001	-0.000000	0.000000	0.000000
31.682593	24.756201	11.497885	0.149185	-0.188549	3.059870	0.000000	-0.017489	0.000000	0.000001	-0.000000	0.000000	0.000000
32.017177	24.660994	11.634138	0.135369	-0.218683	3.054018	0.000000	-0.017489	0.000000	0.000001	-0.000000	0.000000	0.000000
32.314499	24.584148	11.772139	0.058858	-0.214703	3.048819	0.000000	-0.009523	0.000000	0.000001	-0.000000	0.000000	0.000000
32.863559	24.098385	12.247272	0.820622	-0.655762	3.018715	0.000000	-0.099970	0.000000	0.000001	-0.000000	0.000000	0.000000
33.412619	22.803148	13.229394	1.524422	-1.143529	2.939365	0.000000	-0.188644	0.000000	0.000001	-0.000000	0.000000	0.000000
33.961679	20.789926	14.788458	2.120544	-1.712747	2.812176	0.000000	-0.273972	0.000000	0.000001	-0.000000	0.000000	0.000000
34.510739	18.200922	17.035513	2.566881	-2.403960	2.639404	0.000000	-0.354440	0.000000	0.000001	-0.000000	0.000000	0.000000
34.956699	16.188015	19.045343	1.962941	-2.083971	2.497675	0.000000	-0.281529	0.000000	0.000001	-0.000000	0.000000	0.000000
35.397659	14.687114	20.706978	1.453684	-1.669912	2.388910	0.000000	-0.212252	0.000000	0.000000	-0.000000	0.000000	0.000000
35.838619	13.604464	21.968419	1.010841	-1.179873	2.310131	0.000000	-0.145393	0.000000	0.000000	-0.000000	0.000000	0.000000
36.279579	12.890602	22.772272	0.614181	-0.636151	2.260442	0.000000	-0.080189	0.000000	0.000000	-0.000000	0.000000	0.000000
36.721789	12.512224	23.082262	0.276159	-0.120143	2.239250	0.000000	-0.021390	0.000000	0.000000	-0.000000	0.000000	0.000000
37.019112	12.355611	23.157589	0.250584	-0.133210	2.232890	0.000000	-0.021390	0.000000	0.000000	-0.000000	0.000000	0.000000
37.352445	12.198112	23.251279	0.221912	-0.147859	2.225760	0.000000	-0.021390	0.000000	0.000000	-0.000000	0.000000	0.000000
37.685779	12.059728	23.354735	0.193240	-0.162509	2.218630	0.000000	-0.021390	0.000000	0.000000	-0.000000	0.000000	0.000000
38.020362	11.940048	23.468400	0.164460	-0.177213	2.211473	0.000000	-0.021390	0.000000	0.000000	-0.000000	0.000000	0.000000
38.317684	11.849857	23.577664	0.167944	-0.248100	2.205114	0.000000	-0.026798	0.000000	0.000000	-0.000000	0.000000	0.000000
38.758644	11.852900	23.535336	-0.174872	0.343726	2.207221	0.000000	0.036366	0.000000	0.000000	-0.000000	0.000000	0.000000
39.199604	12.160648	22.975993	-0.525679	0.919912	2.237246	0.000000	0.099944	0.000000	-0.000000	-0.000000	0.000000	0.000000
39.640564	12.787159	21.925087	-0.900501	1.454244	2.295531	0.000000	0.164660	0.000000	-0.000000	-0.000000	0.000000	0.000000
40.081524	13.761058	20.430431	-1.316466	1.922408	2.382738	0.000000	0.231252	0.000000	-0.000000	-0.000000	0.000000	0.000000
40.527484	15.144401	18.537464	-1.796399	2.304382	2.501334	0.000000	0.300882	0.000000	-0.000000	-0.000000	0.000000	0.000000
41.076544	16.909982	16.410350	-1.400208	1.592587	2.646012	0.000000	0.225343	0.000000	-0.000000	-0.000000	0.000000	0.000000
41.625604	18.183280	14.998367	-0.905115	0.994229	2.748054	0.000000	0.145806	0.000000	-0.000000	-0.000000	0.000000	0.000000
42.174664	18.874356	14.200943	-0.346088	0.466688	2.805649	0.000000	0.063683	0.000000	-0.000000	-0.000000	0.000000	0.000000
42.723724	18.934396	13.961280	0.237385	-0.027613	2.817778	0.000000	-0.019569	0.000000	-0.000000	-0.000000	0.000000	0.000000
43.022297	18.827059	13.962371	0.171587	-0.012522	2.814133	0.000000	-0.012207	0.000000	-0.000000	-0.000000	0.000000	0.000000
43.502297	18.674934	13.990896	0.145341	-0.046905	2.808274	0.000000	-0.012207	0.000000	-0.000001	-0.000000	0.000000	0.000000
43.982297	18.548005	14.052429	0.119095	-0.081289	2.802415	0.000000	-0.012207	0.000000	-0.000001	-0.000000	0.000000	0.000000
44.462297	18.446272	14.146971	0.092849	-0.115672	2.796555	0.000000	-0.012207	0.000000	-0.000001	-0.000000	0.000000	0.000000
44.942297	18.369734	14.274520	0.066603	-0.150056	2.790696	0.000000	-0.012207	0.000000	-0.000001	-0.000000	0.000000	0.000000
45.423547	18.318519	14.435360	-0.050471	-0.113007	2.784839	0.000000	0.001591	0.000000	-0.000001	-0.000000	0.000000	0.000000
45.720870	18.353370	14.508762	-0.114697	-0.095958	2.785312	0.000000	0.008868	0.000000	-0.000001	-0.000000	0.000000	0.000000
46.269930	18.170279	14.894832	0.446185	-0.611341	2.767613	0.000000	-0.073242	0.000000	-0.000001	-0.000000	0.000000	0.000000
46.818990	17.385013	15.867301	0.975550	-1.170267	2.705122	0.000000	-0.154053	0.000000	-0.000001	-0.000000	0.000000	0.000000
47.368050	16.053038	17.495437	1.436008	-1.812550	2.598946	0.000000	-0.232132	0.000000	-0.000001	-0.000000	0.000000	0.000000
47.917110	14.268438	19.895206	1.795034	-2.583936	2.450970	0.000000	-0.306093	0.000000	-0.000001	0.000000	0.000000	0.000000
48.363070	12.879521	22.028925	1.330442	-2.180503	2.329754	0.000000	-0.237803	0.000000	-0.000001	-0.000000	0.000000	0.000000
48.804030	11.886348	23.737369	0.930401	-1.679128	2.239351	0.000000	-0.172618	0.000000	-0.000001	-0.000000	0.000000	0.000000
49.244990	11.225971	24.968134	0.572868	-1.101354	2.177231	0.000000	-0.109400	0.000000	-0.000001	-0.000000	0.000000	0.000000
49.685950	10.868222	25.665221	0.241507	-0.473469	2.142686	0.000000	-0.047427	0.000000	-0.000001	-0.000000	0.000000	0.000000
50.128160	10.796885	25.796631	-0.052459	0.112647	2.135335	0.000000	0.008769	0.000000	-0.000001	-0.000000	0.000000	0.000000
50.425482	10.836289	25.733116	-0.080072	0.100975	2.137942	0.000000	0.008769	0.000000	-0.000001	-0.000000	0.000000	0.000000
50.758816	10.899990	25.670161	-0.111030	0.087889	2.140865	0.000000	0.008769	0.000000	-0.000001	-0.000000	0.000000	0.000000
51.092149	10.984330	25.615930	-0.141988	0.074804	2.143788	0.000000	0.008769	0.000000	-0.000001	-0.000000	0.000000	0.000000
51.426732	11.089516	25.570787	-0.083097	-0.145773	2.146700	0.000000	-0.008647	0.000000	-0.000001	-0.000000	0.000000	0.000000
51.724055	11.146955	25.661001	-0.082757	-0.220577	2.144130	0.000000	-0.013905	0.000000	-0.000001	-0.000000	0.000000	0.000000
52.165015	11.365444	25.570081	-0.414605	0.425979	2.151586	0.000000	0.047756	0.000000	-0.000001	-0.000000	0.000000	0.000000
52.605975	11.883810	24.915352	-0.765395	1.053152	2.186326	0.000000	0.109960	0.000000	-0.000001	-0.000000	0.000000	0.000000
53.046935	12.725737	23.726604	-1.151154	1.632408	2.248746	0.000000	0.173417	0.000000	-0.000001	-0.000000	0.000000	0.000000
53.487895	13.929690	22.057923	-1.589505	2.137391	2.339556	0.000000	0.238849	0.000000	-0.000001	-0.000000	0.000000	0.000000
53.933855	15.571307	19.960282	-2.104716	2.546458	2.461296	0.000000	0.307400	0.000000	-0.000001	-0.000000	0.000000	0.000000
54.482915	17.684775	17.600011	-1.721746	1.777665	2.609897	0.000000	0.233095	0.000000	-0.000002	-0.000000	0.000000	0.000000
55.031975	19.308020	16.009900	-1.217161	1.135491	2.716503	0.000000	0.154654	0.000000	-0.000002	-0.000000	0.000000	0.000000
55.581035	20.326385	15.076688	-0.626602	0.574195	2.779222	0.000000	0.073470	0.000000	-0.000002	-0.000000	0.000000	0.000000
56.130095	20.667937	14.733906	0.008217	0.053797	2.796943	0.000000	-0.009016	0.000000	-0.000002	-0.000000	0.000000	0.000000
56.428668	20.699600	14.684895	-0.060262	0.071858	2.796433	0.000000	-0.001708	0.000000	-0.000002	-0.000000	0.000000	0.000000
56.762001	20.745162	14.644595	-0.076423	0.049042	2.795863	0.000000	-0.001708	0.000000	-0.000002	-0.000000	0.000000	0.000000
57.095334	20.801498	14.619506	-0.092585	0.026225	2.795294	0.000000	-0.001708	0.000000	-0.000002	-0.000000	0.000000	0.000000
57.429918	20.868881	14.609619	-0.108808	0.003324	2.794722	0.000000	-0.001708	0.000000	-0.000002	-0.000000	0.000000	0.000000
57.727240	20.937869	14.613694	-0.177931	0.021156	2.794214	0.000000	0.005593	0.000000	-0.000002	-0.000000	0.000000	0.000000
58.276300	20.775981	14.871173	0.471032	-0.492869	2.774644	0.000000	-0.076776	0.000000	-0.000002	0.000000	0.000000	0.000000
58.825360	19.915587	15.708961	1.086723	-1.041999	2.710155	0.000000	-0.157782	0.000000	-0.000002	0.000000	0.000000	0.000000
59.374420	18.417461	17.186734	1.625654	-1.665348	2.601893	0.000000	-0.235990	0.000000	-0.000002	0.000000	0.000000	0.000000
59.923480	16.387422	19.409750	2.049757	-2.407316	2.451778	0.000000	-0.310013	0.000000	-0.000002	0.000000	0.000000	0.000000
60.369440	14.798413	21.385670	1.525981	-2.004696	2.328816	0.000000	-0.241724	0.000000	-0.000002	0.000000	0.000000	0.000000
60.810400	13.655320	22.942419	1.076137	-1.512232	2.236675	0.000000	-0.176586	0.000000	-0.000002	0.000000	0.000000	0.000000
61.251360	12.885856	24.032739	0.675458	-0.950964	2.172786	0.000000	-0.113459	0.000000	-0.000001	0.000000	0.000000	0.000000
61.692320	12.454866	24.607021	0.305639	-0.346427	2.136423	0.000000	-0.051625	0.000000	-0.000001	0.000000	0.000000	0.000000
62.134530	12.342711	24.638604	-0.020049	0.213396	2.127177	0.000000	0.004405	0.000000	-0.000001	-0.000000	0.000000	0.000000
62.431853	12.361798	24.515460	-0.044148	0.200779	2.128487	0.000000	0.004405	0.000000	-0.000001	-0.000000	0.000000	0.000000
62.765186	12.400236	24.386322	-0.071165	0.186634	2.129955	0.000000	0.004405	0.000000	-0.000001	-0.000000	0.000000	0.000000
63.098520	12.456685	24.266615	-0.098183	0.172489	2.131423	0.000000	0.004405	0.000000	-0.000001	-0.000000	0.000000	0.000000
63.433103	12.531459	24.155941	-0.125301	0.158291	2.132897	0.000000	0.004405	0.000000	-0.000001	-0.000000	0.000000	0.000000
63.730426	12.613134	24.065566	-0.118468	0.086657	2.134207	0.000000	-0.000829	0.000000	-0.000001	-0.000000	0.000000	0.000000
64.171386	12.878164	23.724090	-0.484841	0.684787	2.147384	0.000000	0.060650	0.000000	-0.000001	-0.000000	0.000000	0.000000
64.612346	13.474815	22.866888	-0.873365	1.251760	2.187797	0.000000	0.122819	0.000000	-0.000002	-0.000000	0.000000	0.000000
65.053306	14.430346	21.532962	-1.301790	1.761779	2.255906	0.000000	0.186388	0.000000	-0.000002	-0.000000	0.000000	0.000000
65.494266	15.788413	19.783004	-1.789690	2.191638	2.352487	0.000000	0.252079	0.000000	-0.000002	-0.000000	0.000000	0.000000
65.940226	17.634232	17.671863	-2.364051	2.522537	2.480213	0.000000	0.321043	0.000000	-0.000002	-0.000000	0.000000	0.000000
66.489286	20.000159	15.310065	-1.919492	1.804383	2.636114	0.000000	0.246005	0.000000	-0.000002	-0.000000	0.000000	0.000000
67.038346	21.800114	13.662106	-1.339350	1.214752	2.749555	0.000000	0.166605	0.000000	-0.000002	-0.000000	0.000000	0.000000
67.587406	22.906956	12.610606	-0.664603	0.711644	2.818524	0.000000	0.084249	0.000000	-0.000002	-0.000000	0.000000	0.000000
68.136466	23.242504	12.080669	0.057089	0.259225	2.841796	0.000000	0.000399	0.000000	-0.000002	0.000000	0.000000	0.000000
68.435038	23.248513	11.915028	-0.016487	0.263985	2.844132	0.000000	0.007824	0.000000	-0.000002	0.000000	0.000000	0.000000
68.768372	23.264285	11.749013	-0.030829	0.234060	2.846740	0.000000	0.007824	0.000000	-0.000002	0.000000	0.000000	0.000000
69.101705	23.289618	11.602948	-0.045170	0.204135	2.849348	0.000000	0.007824	0.000000	-0.000002	0.000000	0.000000	0.000000
69.436288	23.324661	11.476398	-0.059566	0.174097	2.851966	0.000000	0.007824	0.000000	-0.000002	0.000000	0.000000	0.000000
69.733611	23.363885	11.380808	-0.133405	0.177141	2.854292	0.000000	0.015282	0.000000	-0.000002	0.000000	0.000000	0.000000
70.282671	23.109128	11.414123	0.594647	-0.238175	2.839493	0.000000	-0.069110	0.000000	-0.000002	0.000000	0.000000	0.000000
