#ParticleID	Turn	x[m]	xp	y[m]	yp	z[m]	dE[GeV]# s	beta_x	beta_y	alpha_x	alpha_y	D_x	D_y	D_px	D_py	orbit_x	orbit_px	orbit_y	orbit_py
0.300000	11.833134	24.943756	-0.013536	-0.027777	2.618316	0.000000	-0.000066	0.000000	-0.000000	0.000000	0.000000	0.000000
0.601250	11.848960	24.964133	-0.038999	-0.039864	2.618296	0.000000	-0.000066	0.000000	-0.000000	0.000000	0.000000	0.000000
0.898573	11.879623	24.991384	-0.034998	-0.113079	2.618277	0.000000	-0.006486	0.000000	-0.000000	0.000000	0.000000	0.000000
1.339533	12.062859	24.813931	-0.382119	0.513973	2.631710	0.000000	0.067475	0.000000	0.000000	0.000000	0.000000	0.000000
1.780493	12.558741	24.091707	-0.746697	1.117639	2.677896	0.000000	0.142204	0.000000	0.000000	0.000000	0.000000	0.000000
2.221453	13.389923	22.857574	-1.145391	1.670453	2.757361	0.000000	0.218553	0.000000	0.000000	0.000000	0.000000	0.000000
2.662413	14.594379	21.167683	-1.596413	2.147263	2.871008	0.000000	0.297392	0.000000	0.000000	0.000000	0.000000	0.000000
3.108373	16.247953	19.074137	-2.124673	2.527504	3.021994	0.000000	0.380107	0.000000	0.000000	0.000000	0.000000	0.000000
3.657433	18.368334	16.722901	-1.714305	1.780068	3.205424	0.000000	0.287069	0.000000	0.000000	0.000000	0.000000	0.000000
4.206493	19.968517	15.118416	-1.182847	1.159421	3.336295	0.000000	0.188940	0.000000	0.000000	0.000000	0.000000	0.000000
4.755553	20.935472	14.146398	-0.567838	0.621358	3.412287	0.000000	0.087459	0.000000	0.000000	0.000000	0.000000	0.000000
5.304613	21.200898	13.737614	0.087280	0.127553	3.432051	0.000000	-0.015572	0.000000	0.000000	0.000000	0.000000	0.000000
5.603185	21.186067	13.646675	0.017788	0.141132	3.430079	0.000000	-0.006605	0.000000	0.000000	0.000000	0.000000	0.000000
5.936519	21.179454	13.560891	0.002050	0.116220	3.427878	0.000000	-0.006605	0.000000	0.000000	0.000000	0.000000	0.000000
6.269852	21.183334	13.491716	-0.013689	0.091307	3.425676	0.000000	-0.006605	0.000000	0.000000	0.000000	0.000000	0.000000
6.604435	21.197780	13.438982	-0.029486	0.066301	3.423466	0.000000	-0.006605	0.000000	0.000000	0.000000	0.000000	0.000000
6.901758	21.219488	13.406164	-0.098967	0.079108	3.421502	0.000000	0.002335	0.000000	0.000001	0.000000	0.000000	0.000000
7.450818	20.966434	13.579750	0.557125	-0.397126	3.394584	0.000000	-0.100240	0.000000	0.000001	0.000000	0.000000	0.000000
7.999878	20.010358	14.288669	1.173864	-0.901646	3.311753	0.000000	-0.201036	0.000000	0.000001	0.000000	0.000000	0.000000
8.548938	18.418792	15.583414	1.707687	-1.470388	3.174478	0.000000	-0.298266	0.000000	0.000001	0.000000	0.000000	0.000000
9.097998	16.304156	17.556209	2.120888	-2.143862	2.985193	0.000000	-0.390206	0.000000	0.000001	-0.000000	0.000000	0.000000
9.543958	14.654205	19.314146	1.592039	-1.781395	2.829481	0.000000	-0.308507	0.000000	0.000001	0.000000	0.000000	0.000000
9.984918	13.453940	20.695417	1.140224	-1.339103	2.710686	0.000000	-0.230806	0.000000	0.000001	0.000000	0.000000	0.000000
10.425878	12.627748	21.658163	0.740504	-0.835884	2.625543	0.000000	-0.155733	0.000000	0.000001	0.000000	0.000000	0.000000
10.866838	12.137884	22.158580	0.374615	-0.294633	2.573082	0.000000	-0.082434	0.000000	0.000001	0.000000	0.000000	0.000000
11.309048	11.961829	22.173386	0.055070	0.205589	2.552685	0.000000	-0.016334	0.000000	0.000001	0.000000	0.000000	0.000000
11.606371	11.936495	22.055288	0.030138	0.191613	2.547829	0.000000	-0.016334	0.000000	0.000001	0.000000	0.000000	0.000000
12.086371	11.926882	21.882170	-0.010111	0.169051	2.539988	0.000000	-0.016334	0.000000	0.000001	0.000000	0.000000	0.000000
12.566371	11.955908	21.730711	-0.050360	0.146488	2.532148	0.000000	-0.016334	0.000000	0.000001	0.000000	0.000000	0.000000
13.046371	12.023574	21.600912	-0.090610	0.123926	2.524308	0.000000	-0.016334	0.000000	0.000001	0.000000	0.000000	0.000000
13.526371	12.129879	21.492774	-0.130859	0.101363	2.516467	0.000000	-0.016334	0.000000	0.000001	0.000000	0.000000	0.000000
14.007621	12.275251	21.406099	-0.171213	0.078742	2.508607	0.000000	-0.016334	0.000000	0.000001	0.000000	0.000000	0.000000
14.304943	12.384475	21.363430	-0.165774	0.012377	2.503750	0.000000	-0.022474	0.000000	0.000001	0.000000	0.000000	0.000000
14.745903	12.689432	21.118662	-0.528424	0.540593	2.509469	0.000000	0.048435	0.000000	0.000001	0.000000	0.000000	0.000000
15.186863	13.323614	20.417157	-0.915217	1.044212	2.546547	0.000000	0.119896	0.000000	0.000001	0.000000	0.000000	0.000000
15.627823	14.315995	19.290834	-1.343823	1.500320	2.615408	0.000000	0.192723	0.000000	0.000001	0.000000	0.000000	0.000000
16.068783	15.711915	17.790941	-1.833824	1.888165	2.716835	0.000000	0.267744	0.000000	0.000001	0.000000	0.000000	0.000000
16.514743	17.598803	15.964220	-2.412366	2.190849	2.853678	0.000000	0.346277	0.000000	0.000001	0.000000	0.000000	0.000000
17.063803	20.021940	13.924376	-1.974756	1.546236	3.020080	0.000000	0.258969	0.000000	0.000001	0.000000	0.000000	0.000000
17.612863	21.884625	12.528125	-1.397659	1.011759	3.137213	0.000000	0.167067	0.000000	0.000001	0.000000	0.000000	0.000000
18.161923	23.055286	11.676015	-0.721839	0.549346	3.202996	0.000000	0.072203	0.000000	0.000001	0.000000	0.000000	0.000000
18.710983	23.451236	11.307351	0.004968	0.126062	3.216265	0.000000	-0.023943	0.000000	0.000002	0.000000	0.000000	0.000000
19.009556	23.488671	11.222507	-0.069077	0.128561	3.211625	0.000000	-0.015539	0.000000	0.000002	0.000000	0.000000	0.000000
19.342889	23.539475	11.146864	-0.083336	0.098368	3.206445	0.000000	-0.015539	0.000000	0.000002	0.000000	0.000000	0.000000
19.676223	23.599786	11.091350	-0.097595	0.068175	3.201265	0.000000	-0.015539	0.000000	0.000002	0.000000	0.000000	0.000000
20.010806	23.670175	11.055733	-0.229182	0.092645	3.196086	0.000000	0.000296	0.000000	0.000002	0.000000	0.000000	0.000000
20.308129	23.810388	11.008706	-0.304615	0.094285	3.196174	0.000000	0.008647	0.000000	0.000002	0.000000	0.000000	0.000000
20.857189	23.734234	11.127767	0.442493	-0.312410	3.174710	0.000000	-0.086715	0.000000	0.000002	-0.000000	0.000000	0.000000
21.406249	22.850043	11.702953	1.158345	-0.741357	3.101233	0.000000	-0.180538	0.000000	0.000002	-0.000000	0.000000	0.000000
21.955309	21.220271	12.775233	1.792378	-1.223109	2.977046	0.000000	-0.271160	0.000000	0.000002	-0.000000	0.000000	0.000000
22.504369	18.960037	14.420983	2.299806	-1.791980	2.804350	0.000000	-0.356971	0.000000	0.000001	-0.000000	0.000000	0.000000
22.950329	17.178956	15.898376	1.708106	-1.506883	2.662444	0.000000	-0.279784	0.000000	0.000001	-0.000000	0.000000	0.000000
23.391289	15.901821	17.076238	1.199142	-1.154083	2.555388	0.000000	-0.206237	0.000000	0.000001	-0.000000	0.000000	0.000000
23.832249	15.047789	17.918527	0.744963	-0.748773	2.480215	0.000000	-0.135040	0.000000	0.000001	-0.000000	0.000000	0.000000
24.273209	14.577840	18.386918	0.324820	-0.309394	2.436068	0.000000	-0.065380	0.000000	0.000001	-0.000000	0.000000	0.000000
24.715418	14.470617	18.459855	-0.045085	0.098725	2.422443	0.000000	-0.002405	0.000000	0.000001	0.000000	0.000000	0.000000
25.012741	14.503548	18.405984	-0.065673	0.082461	2.421728	0.000000	-0.002405	0.000000	0.000001	0.000000	0.000000	0.000000
25.346075	14.555024	18.357087	-0.088755	0.064228	2.420926	0.000000	-0.002405	0.000000	0.000001	0.000000	0.000000	0.000000
25.679408	14.621888	18.320346	-0.111837	0.045995	2.420124	0.000000	-0.002405	0.000000	0.000001	0.000000	0.000000	0.000000
26.013991	14.704179	18.296063	-0.015716	-0.120733	2.419295	0.000000	-0.022032	0.000000	0.000001	0.000000	0.000000	0.000000
26.311314	14.719538	18.372758	0.000155	-0.182276	2.412744	0.000000	-0.027949	0.000000	0.000001	0.000000	0.000000	0.000000
26.752274	14.900784	18.334196	-0.412740	0.269393	2.415525	0.000000	0.040576	0.000000	0.000001	0.000000	0.000000	0.000000
27.193234	15.453077	17.901202	-0.844491	0.708805	2.448597	0.000000	0.109563	0.000000	0.000001	0.000000	0.000000	0.000000
27.634194	16.401651	17.093477	-1.314826	1.115966	2.512335	0.000000	0.179799	0.000000	0.000001	0.000000	0.000000	0.000000
28.075154	17.789843	15.947773	-1.845230	1.472352	2.607465	0.000000	0.252082	0.000000	0.000001	0.000000	0.000000	0.000000
28.521114	19.705201	14.498962	-2.464892	1.762662	2.736674	0.000000	0.327679	0.000000	0.000002	0.000000	0.000000	0.000000
29.070174	22.139624	12.884520	-1.942663	1.195068	2.893933	0.000000	0.244310	0.000000	0.000002	0.000000	0.000000	0.000000
29.619234	23.921371	11.843244	-1.283213	0.712597	3.004160	0.000000	0.156608	0.000000	0.000002	0.000000	0.000000	0.000000
30.168294	24.924587	11.300966	-0.533123	0.280882	3.065397	0.000000	0.066128	0.000000	0.000002	0.000000	0.000000	0.000000
30.717354	25.078411	11.219060	0.254623	-0.130826	3.076560	0.000000	-0.025525	0.000000	0.000002	-0.000000	0.000000	0.000000
31.015927	24.969173	11.287706	0.176768	-0.128401	3.071339	0.000000	-0.017487	0.000000	0.000002	-0.000000	0.000000	0.000000
31.349260	24.855917	11.383312	0.163001	-0.158418	3.065510	0.000000	-0.017487	0.000000	0.000002	-0.000000	0.000000	0.000000
31.682593	24.751839	11.498930	0.149234	-0.188436	3.059681	0.000000	-0.017487	0.000000	0.000002	-0.000000	0.000000	0.000000
32.017177	24.656600	11.635106	0.135415	-0.218566	3.053831	0.000000	-0.017487	0.000000	0.000002	-0.000000	0.000000	0.000000
32.314499	24.579727	11.773036	0.058914	-0.214580	3.048631	0.000000	-0.009521	0.000000	0.000002	-0.000000	0.000000	0.000000
32.863559	24.093984	12.248045	0.820531	-0.655657	3.018531	0.000000	-0.099963	0.000000	0.000002	-0.000000	0.000000	0.000000
33.412619	22.798925	13.230058	1.524189	-1.143435	2.939186	0.000000	-0.188631	0.000000	0.000002	-0.000000	0.000000	0.000000
33.961679	20.786028	14.789023	2.120187	-1.712658	2.812006	0.000000	-0.273953	0.000000	0.000002	-0.000000	0.000000	0.000000
34.510739	18.197474	17.035980	2.566425	-2.403869	2.639245	0.000000	-0.354416	0.000000	0.000001	-0.000000	0.000000	0.000000
34.956699	16.184927	19.045717	1.962587	-2.083854	2.497527	0.000000	-0.281509	0.000000	0.000001	-0.000000	0.000000	0.000000
35.397659	14.684300	20.707240	1.453415	-1.669774	2.388769	0.000000	-0.212236	0.000000	0.000001	-0.000000	0.000000	0.000000
35.838619	13.601854	21.968553	1.010645	-1.179721	2.309997	0.000000	-0.145380	0.000000	0.000001	-0.000000	0.000000	0.000000
36.279579	12.888138	22.772268	0.614048	-0.635991	2.260313	0.000000	-0.080180	0.000000	0.000001	-0.000000	0.000000	0.000000
36.721789	12.509851	23.082116	0.276078	-0.119983	2.239124	0.000000	-0.021384	0.000000	0.000001	-0.000000	0.000000	0.000000
37.019112	12.353288	23.157348	0.250499	-0.133049	2.232767	0.000000	-0.021384	0.000000	0.000001	-0.000000	0.000000	0.000000
37.352445	12.195847	23.250931	0.221822	-0.147698	2.225639	0.000000	-0.021384	0.000000	0.000001	-0.000000	0.000000	0.000000
37.685779	12.057524	23.354279	0.193146	-0.162347	2.218511	0.000000	-0.021384	0.000000	0.000001	-0.000000	0.000000	0.000000
38.020362	11.937908	23.467836	0.164362	-0.177051	2.211356	0.000000	-0.021384	0.000000	0.000001	-0.000000	0.000000	0.000000
38.317684	11.847776	23.577004	0.167837	-0.247935	2.204998	0.000000	-0.026791	0.000000	0.000001	-0.000000	0.000000	0.000000
38.758644	11.850894	23.534539	-0.174933	0.343871	2.207108	0.000000	0.036370	0.000000	0.000001	-0.000000	0.000000	0.000000
39.199604	12.158676	22.975080	-0.525696	0.920031	2.237134	0.000000	0.099945	0.000000	0.000001	-0.000000	0.000000	0.000000
39.640564	12.785184	21.924082	-0.900476	1.454330	2.295418	0.000000	0.164658	0.000000	0.000001	-0.000000	0.000000	0.000000
40.081524	13.759042	20.429365	-1.316397	1.922459	2.382624	0.000000	0.231247	0.000000	0.000001	0.000000	0.000000	0.000000
40.527484	15.142302	18.536370	-1.796283	2.304395	2.501217	0.000000	0.300875	0.000000	0.000001	0.000000	0.000000	0.000000
41.076544	16.907798	16.409229	-1.400170	1.592623	2.645892	0.000000	0.225339	0.000000	0.000001	0.000000	0.000000	0.000000
41.625604	18.181097	14.997193	-0.905156	0.994291	2.747932	0.000000	0.145806	0.000000	0.000001	-0.000000	0.000000	0.000000
42.174664	18.872261	14.199685	-0.346206	0.466780	2.805529	0.000000	0.063687	0.000000	0.000001	-0.000000	0.000000	0.000000
42.723724	18.932470	13.959901	0.237198	-0.027484	2.817661	0.000000	-0.019562	0.000000	0.000001	-0.000000	0.000000	0.000000
43.022297	18.825242	13.960919	0.171405	-0.012399	2.814019	0.000000	-0.012200	0.000000	0.000001	-0.000000	0.000000	0.000000
43.502297	18.673291	13.989328	0.145158	-0.046786	2.808163	0.000000	-0.012200	0.000000	0.000001	-0.000000	0.000000	0.000000
43.982297	18.546538	14.050748	0.118911	-0.081173	2.802307	0.000000	-0.012200	0.000000	0.000001	-0.000000	0.000000	0.000000
44.462297	18.444982	14.145180	0.092664	-0.115560	2.796451	0.000000	-0.012200	0.000000	0.000001	-0.000000	0.000000	0.000000
44.942297	18.368622	14.272624	0.066418	-0.149947	2.790595	0.000000	-0.012200	0.000000	0.000001	-0.000000	0.000000	0.000000
45.423547	18.317587	14.433361	-0.050653	-0.112912	2.784742	0.000000	0.001598	0.000000	0.000001	-0.000000	0.000000	0.000000
45.720870	18.352545	14.506706	-0.114878	-0.095871	2.785217	0.000000	0.008875	0.000000	0.000001	-0.000000	0.000000	0.000000
46.269930	18.169667	14.892646	0.445982	-0.611188	2.767522	0.000000	-0.073232	0.000000	0.000001	-0.000000	0.000000	0.000000
46.818990	17.384629	15.864908	0.975339	-1.170039	2.705037	0.000000	-0.154041	0.000000	0.000001	-0.000000	0.000000	0.000000
47.368050	16.052884	17.492743	1.435804	-1.812229	2.598869	0.000000	-0.232117	0.000000	0.000001	-0.000000	0.000000	0.000000
47.917110	14.268498	19.892099	1.794850	-2.583500	2.450901	0.000000	-0.306076	0.000000	0.000000	-0.000000	0.000000	0.000000
48.363070	12.879737	22.025458	1.330274	-2.180134	2.329694	0.000000	-0.237787	0.000000	0.000000	-0.000000	0.000000	0.000000
48.804030	11.886707	23.733612	0.930241	-1.678842	2.239297	0.000000	-0.172604	0.000000	0.000000	-0.000000	0.000000	0.000000
49.244990	11.226472	24.964167	0.572708	-1.101165	2.177182	0.000000	-0.109387	0.000000	0.000000	-0.000000	0.000000	0.000000
49.685950	10.868866	25.661132	0.241340	-0.473385	2.142643	0.000000	-0.047416	0.000000	0.000000	-0.000000	0.000000	0.000000
50.128160	10.797683	25.792516	-0.052639	0.112633	2.135297	0.000000	0.008779	0.000000	0.000000	-0.000000	0.000000	0.000000
50.425482	10.837194	25.729010	-0.080251	0.100959	2.137908	0.000000	0.008779	0.000000	0.000000	-0.000000	0.000000	0.000000
50.758816	10.901013	25.666067	-0.111207	0.087872	2.140834	0.000000	0.008779	0.000000	0.000000	-0.000000	0.000000	0.000000
51.092149	10.985470	25.611848	-0.142164	0.074784	2.143761	0.000000	0.008779	0.000000	0.000000	-0.000000	0.000000	0.000000
51.426732	11.090773	25.566719	-0.083260	-0.145762	2.146677	0.000000	-0.008636	0.000000	0.000000	-0.000000	0.000000	0.000000
51.724055	11.148309	25.656927	-0.082915	-0.220557	2.144109	0.000000	-0.013894	0.000000	0.000000	-0.000000	0.000000	0.000000
52.165015	11.366951	25.566038	-0.414798	0.425890	2.151570	0.000000	0.047766	0.000000	-0.000000	-0.000000	0.000000	0.000000
52.605975	11.885507	24.911433	-0.765632	1.052960	2.186315	0.000000	0.109971	0.000000	-0.000000	-0.000000	0.000000	0.000000
53.046935	12.727666	23.722896	-1.151445	1.632121	2.248739	0.000000	0.173427	0.000000	-0.000000	-0.000000	0.000000	0.000000
53.487895	13.931905	22.054506	-1.589864	2.137022	2.339554	0.000000	0.238859	0.000000	-0.000000	-0.000000	0.000000	0.000000
53.933855	15.573879	19.957224	-2.105160	2.546024	2.461298	0.000000	0.307410	0.000000	-0.000000	-0.000000	0.000000	0.000000
54.482915	17.687802	17.597365	-1.722127	1.777344	2.609904	0.000000	0.233104	0.000000	-0.000000	-0.000000	0.000000	0.000000
55.031975	19.311417	16.007554	-1.217451	1.135261	2.716515	0.000000	0.154664	0.000000	-0.000000	-0.000000	0.000000	0.000000
55.581035	20.330041	15.074553	-0.626780	0.574040	2.779240	0.000000	0.073479	0.000000	-0.000000	-0.000000	0.000000	0.000000
56.130095	20.671721	14.731905	0.008163	0.053707	2.796965	0.000000	-0.009008	0.000000	-0.000000	-0.000000	0.000000	0.000000
56.428668	20.703421	14.682951	-0.060323	0.071759	2.796458	0.000000	-0.001700	0.000000	-0.000000	-0.000000	0.000000	0.000000
56.762001	20.749023	14.642718	-0.076482	0.048940	2.795891	0.000000	-0.001700	0.000000	-0.000000	-0.000000	0.000000	0.000000
57.095334	20.805397	14.617698	-0.092641	0.026121	2.795324	0.000000	-0.001700	0.000000	-0.000001	-0.000000	0.000000	0.000000
57.429918	20.872816	14.607882	-0.108860	0.003217	2.794756	0.000000	-0.001700	0.000000	-0.000001	-0.000000	0.000000	0.000000
57.727240	20.941834	14.612021	-0.177991	0.021042	2.794250	0.000000	0.005601	0.000000	-0.000001	-0.000000	0.000000	0.000000
58.276300	20.779938	14.869599	0.471105	-0.492936	2.774684	0.000000	-0.076769	0.000000	-0.000001	-0.000000	0.000000	0.000000
58.825360	19.919392	15.707439	1.086925	-1.042025	2.710199	0.000000	-0.157777	0.000000	-0.000001	-0.000000	0.000000	0.000000
59.374420	18.420980	17.185219	1.625970	-1.665335	2.601940	0.000000	-0.235986	0.000000	-0.000001	-0.000000	0.000000	0.000000
59.923480	16.390542	19.408198	2.050165	-2.407263	2.451827	0.000000	-0.310010	0.000000	-0.000001	0.000000	0.000000	0.000000
60.369440	14.801211	21.384092	1.526298	-2.004690	2.328866	0.000000	-0.241720	0.000000	-0.000001	-0.000000	0.000000	0.000000
60.810400	13.657873	22.940856	1.076378	-1.512274	2.236727	0.000000	-0.176581	0.000000	-0.000001	-0.000000	0.000000	0.000000
61.251360	12.888225	24.031233	0.675634	-0.951051	2.172841	0.000000	-0.113453	0.000000	-0.000001	-0.000000	0.000000	0.000000
61.692320	12.457105	24.605612	0.305759	-0.346556	2.136481	0.000000	-0.051617	0.000000	-0.000001	-0.000000	0.000000	0.000000
62.134530	12.344867	24.637325	-0.019975	0.213234	2.127239	0.000000	0.004415	0.000000	-0.000001	-0.000000	0.000000	0.000000
62.431853	12.363909	24.514278	-0.044070	0.200617	2.128552	0.000000	0.004415	0.000000	-0.000001	-0.000000	0.000000	0.000000
62.765186	12.402293	24.385248	-0.071082	0.186472	2.130023	0.000000	0.004415	0.000000	-0.000001	-0.000000	0.000000	0.000000
63.098520	12.458685	24.265648	-0.098095	0.172328	2.131495	0.000000	0.004415	0.000000	-0.000001	-0.000000	0.000000	0.000000
63.433103	12.533399	24.155083	-0.125209	0.158130	2.132972	0.000000	0.004415	0.000000	-0.000001	-0.000000	0.000000	0.000000
63.730426	12.615017	24.064803	-0.118367	0.086499	2.134285	0.000000	-0.000819	0.000000	-0.000001	-0.000000	0.000000	0.000000
64.171386	12.879976	23.723475	-0.484780	0.684613	2.147466	0.000000	0.060662	0.000000	-0.000001	-0.000000	0.000000	0.000000
64.612346	13.476590	22.866431	-0.873342	1.251577	2.187885	0.000000	0.122833	0.000000	-0.000001	-0.000000	0.000000	0.000000
65.053306	14.432117	21.532667	-1.301803	1.761596	2.256000	0.000000	0.186404	0.000000	-0.000001	-0.000000	0.000000	0.000000
65.494266	15.790212	19.782867	-1.789741	2.191464	2.352589	0.000000	0.252097	0.000000	-0.000001	-0.000000	0.000000	0.000000
65.940226	17.636095	17.671874	-2.364141	2.522380	2.480324	0.000000	0.321064	0.000000	-0.000001	-0.000000	0.000000	0.000000
66.489286	20.002083	15.310238	-1.919512	1.804245	2.636236	0.000000	0.246023	0.000000	-0.000001	-0.000000	0.000000	0.000000
67.038346	21.802019	13.662425	-1.339297	1.214623	2.749685	0.000000	0.166618	0.000000	-0.000001	-0.000000	0.000000	0.000000
67.587406	22.908765	12.611066	-0.664481	0.711515	2.818660	0.000000	0.084258	0.000000	-0.000001	-0.000000	0.000000	0.000000
68.136466	23.244146	12.081274	0.057270	0.259087	2.841936	0.000000	0.000403	0.000000	-0.000001	-0.000000	0.000000	0.000000
68.435038	23.250049	11.915714	-0.016309	0.263852	2.844274	0.000000	0.007829	0.000000	-0.000001	-0.000000	0.000000	0.000000
68.768372	23.265702	11.749787	-0.030649	0.233930	2.846884	0.000000	0.007829	0.000000	-0.000001	-0.000000	0.000000	0.000000
69.101705	23.290915	11.603807	-0.044990	0.204009	2.849493	0.000000	0.007829	0.000000	-0.000001	-0.000000	0.000000	0.000000
69.436288	23.325837	11.477340	-0.059384	0.173975	2.852113	0.000000	0.007829	0.000000	-0.000001	-0.000000	0.000000	0.000000
69.733611	23.364953	11.381822	-0.133225	0.177024	2.854440	0.000000	0.015287	0.000000	-0.000001	-0.000000	0.000000	0.000000
70.282671	23.109980	11.415281	0.594856	-0.238322	2.839643	0.000000	-0.069110	0.000000	-0.000002	0.000000	0.000000	0.000000
