#ParticleID	Turn	x[m]	xp	y[m]	yp	z[m]	dE[GeV]# s	beta_x	beta_y	alpha_x	alpha_y	D_x	D_y	D_px	D_py	orbit_x	orbit_px	orbit_y	orbit_py
0.300000	11.821800	24.986130	-0.011972	-0.027574	2.618085	0.000000	0.000023	0.000000	-0.000000	0.000001	0.000000	0.000000
0.601250	11.836691	25.006378	-0.037458	-0.039640	2.618092	0.000000	0.000023	0.000000	-0.000000	0.000001	0.000000	0.000000
0.898573	11.866444	25.033491	-0.033512	-0.112938	2.618099	0.000000	-0.006397	0.000000	-0.000000	0.000001	0.000000	0.000000
1.339533	12.048226	24.855422	-0.380294	0.515223	2.631571	0.000000	0.067560	0.000000	0.000000	0.000001	0.000000	0.000000
1.780493	12.542319	24.131626	-0.744450	1.119941	2.677793	0.000000	0.142286	0.000000	0.000001	0.000001	0.000000	0.000000
2.221453	13.371296	22.895035	-1.142619	1.673703	2.757293	0.000000	0.218633	0.000000	0.000001	0.000001	0.000000	0.000000
2.662413	14.573031	21.201913	-1.592990	2.151313	2.870974	0.000000	0.297470	0.000000	0.000001	0.000001	0.000000	0.000000
3.108373	16.223201	19.104464	-2.120435	2.532171	3.021995	0.000000	0.380185	0.000000	0.000002	0.000001	0.000000	0.000000
3.657433	18.339243	16.748770	-1.710687	1.783566	3.205467	0.000000	0.287147	0.000000	0.000002	0.000001	0.000000	0.000000
4.206493	19.935913	15.140967	-1.180105	1.162001	3.336380	0.000000	0.189015	0.000000	0.000002	0.000001	0.000000	0.000000
4.755553	20.900429	14.166535	-0.566166	0.623203	3.412412	0.000000	0.087531	0.000000	0.000003	0.000001	0.000000	0.000000
5.304613	21.164665	13.756067	0.087765	0.128794	3.432214	0.000000	-0.015506	0.000000	0.000003	0.000000	0.000000	0.000000
5.603185	21.149494	13.664353	0.018345	0.142441	3.430262	0.000000	-0.006538	0.000000	0.000003	0.000000	0.000000	0.000000
5.936519	21.142519	13.577689	0.002578	0.117551	3.428082	0.000000	-0.006538	0.000000	0.000003	0.000000	0.000000	0.000000
6.269852	21.146056	13.507618	-0.013188	0.092662	3.425903	0.000000	-0.006538	0.000000	0.000003	0.000000	0.000000	0.000000
6.604435	21.160175	13.453970	-0.029013	0.067679	3.423715	0.000000	-0.006538	0.000000	0.000004	0.000000	0.000000	0.000000
6.901758	21.181609	13.420326	-0.098418	0.080543	3.421771	0.000000	0.002402	0.000000	0.000004	0.000001	0.000000	0.000000
7.450818	20.928652	13.592551	0.556400	-0.396067	3.394888	0.000000	-0.100181	0.000000	0.000004	0.000000	0.000000	0.000000
7.999878	19.974051	14.300478	1.171917	-0.900888	3.312086	0.000000	-0.200988	0.000000	0.000004	0.000000	0.000000	0.000000
8.548938	18.385235	15.594532	1.704655	-1.469877	3.174834	0.000000	-0.298229	0.000000	0.000004	0.000000	0.000000	0.000000
9.097998	16.274430	17.566885	2.116985	-2.143562	2.985566	0.000000	-0.390181	0.000000	0.000004	-0.000000	0.000000	0.000000
9.543958	14.627562	19.324380	1.589003	-1.780708	2.829868	0.000000	-0.308472	0.000000	0.000004	0.000000	0.000000	0.000000
9.984918	13.429647	20.704887	1.137910	-1.338063	2.711091	0.000000	-0.230761	0.000000	0.000004	0.000000	0.000000	0.000000
10.425878	12.605219	21.666577	0.738805	-0.834539	2.625970	0.000000	-0.155677	0.000000	0.000005	0.000000	0.000000	0.000000
10.866838	12.116611	22.165695	0.373454	-0.293043	2.573535	0.000000	-0.082367	0.000000	0.000005	0.000000	0.000000	0.000000
11.309048	11.941364	22.179012	0.054343	0.207339	2.553170	0.000000	-0.016256	0.000000	0.000005	0.000001	0.000000	0.000000
11.606371	11.916475	22.059876	0.029370	0.193357	2.548337	0.000000	-0.016256	0.000000	0.000005	0.000001	0.000000	0.000000
12.086371	11.907630	21.885088	-0.010945	0.170785	2.540534	0.000000	-0.016256	0.000000	0.000005	0.000001	0.000000	0.000000
12.566371	11.937488	21.731969	-0.051260	0.148212	2.532731	0.000000	-0.016256	0.000000	0.000006	0.000001	0.000000	0.000000
13.046371	12.006049	21.600520	-0.091575	0.125640	2.524928	0.000000	-0.016256	0.000000	0.000006	0.000001	0.000000	0.000000
13.526371	12.113312	21.490741	-0.131890	0.103067	2.517125	0.000000	-0.016256	0.000000	0.000006	0.000001	0.000000	0.000000
14.007621	12.259709	21.402430	-0.172310	0.080436	2.509302	0.000000	-0.016256	0.000000	0.000006	0.000001	0.000000	0.000000
14.304943	12.369597	21.358756	-0.166950	0.014080	2.504469	0.000000	-0.022397	0.000000	0.000007	0.000001	0.000000	0.000000
14.745903	12.675454	21.112553	-0.529299	0.542131	2.510225	0.000000	0.048531	0.000000	0.000007	0.000001	0.000000	0.000000
15.186863	13.310290	20.409790	-0.915829	1.045516	2.547350	0.000000	0.120012	0.000000	0.000007	0.000001	0.000000	0.000000
15.627823	14.303107	19.282443	-1.344202	1.501330	2.616266	0.000000	0.192860	0.000000	0.000008	0.000001	0.000000	0.000000
16.068783	15.699265	17.781804	-1.833987	1.888836	2.717758	0.000000	0.267904	0.000000	0.000008	0.000001	0.000000	0.000000
16.514743	17.586204	15.954650	-2.412319	2.191148	2.854678	0.000000	0.346462	0.000000	0.000009	0.000001	0.000000	0.000000
17.063803	20.009593	13.914395	-1.975258	1.546691	3.021173	0.000000	0.259120	0.000000	0.000009	0.000001	0.000000	0.000000
17.612863	21.873116	12.517545	-1.398674	1.012401	3.138378	0.000000	0.167182	0.000000	0.000010	0.000001	0.000000	0.000000
18.161923	23.045142	11.664605	-0.723294	0.550223	3.204214	0.000000	0.072279	0.000000	0.000010	0.000001	0.000000	0.000000
18.710983	23.442885	11.294822	0.003175	0.127236	3.217513	0.000000	-0.023906	0.000000	0.000011	0.000000	0.000000	0.000000
19.009556	23.481378	11.209309	-0.070850	0.129661	3.212885	0.000000	-0.015500	0.000000	0.000011	0.000000	0.000000	0.000000
19.342889	23.533367	11.132948	-0.085117	0.099424	3.207718	0.000000	-0.015500	0.000000	0.000011	0.000000	0.000000	0.000000
19.676223	23.594867	11.076744	-0.099384	0.069186	3.202551	0.000000	-0.015500	0.000000	0.000011	0.000000	0.000000	0.000000
20.010806	23.666457	11.040465	-0.230961	0.093537	3.197384	0.000000	0.000341	0.000000	0.000011	0.000000	0.000000	0.000000
20.308129	23.807731	10.992921	-0.306394	0.095091	3.197486	0.000000	0.008695	0.000000	0.000011	0.000000	0.000000	0.000000
20.857189	23.733570	11.110849	0.440664	-0.311141	3.176037	0.000000	-0.086709	0.000000	0.000011	-0.000000	0.000000	0.000000
21.406249	22.851356	11.684347	1.156596	-0.739534	3.102551	0.000000	-0.180576	0.000000	0.000011	-0.000000	0.000000	0.000000
21.955309	21.223403	12.754264	1.790832	-1.220603	2.978331	0.000000	-0.271240	0.000000	0.000011	-0.000001	0.000000	0.000000
22.504369	18.964704	14.396809	2.298572	-1.788613	2.805582	0.000000	-0.357092	0.000000	0.000010	-0.000001	0.000000	0.000000
22.950329	17.184710	15.871433	1.706892	-1.504066	2.663629	0.000000	-0.279873	0.000000	0.000010	-0.000001	0.000000	0.000000
23.391289	15.908657	17.047099	1.197892	-1.151940	2.556541	0.000000	-0.206296	0.000000	0.000009	-0.000001	0.000000	0.000000
23.832249	15.055763	17.887833	0.743620	-0.747403	2.481348	0.000000	-0.135069	0.000000	0.000009	-0.000000	0.000000	0.000000
24.273209	14.587063	18.355382	0.323322	-0.308859	2.437195	0.000000	-0.065380	0.000000	0.000009	-0.000000	0.000000	0.000000
24.715418	14.481259	18.428226	-0.046782	0.098481	2.423576	0.000000	-0.002379	0.000000	0.000009	0.000000	0.000000	0.000000
25.012741	14.515196	18.374508	-0.067359	0.082190	2.422868	0.000000	-0.002379	0.000000	0.000009	0.000000	0.000000	0.000000
25.346075	14.567791	18.325803	-0.090428	0.063926	2.422075	0.000000	-0.002379	0.000000	0.000009	0.000000	0.000000	0.000000
25.679408	14.635766	18.289273	-0.113496	0.045663	2.421282	0.000000	-0.002379	0.000000	0.000009	0.000000	0.000000	0.000000
26.013991	14.719162	18.265221	-0.017240	-0.120846	2.420462	0.000000	-0.022015	0.000000	0.000009	0.000000	0.000000	0.000000
26.311314	14.735422	18.341992	-0.001313	-0.182338	2.413916	0.000000	-0.027934	0.000000	0.000009	0.000000	0.000000	0.000000
26.752274	14.918139	18.303853	-0.414622	0.268500	2.416711	0.000000	0.040621	0.000000	0.000009	0.000000	0.000000	0.000000
27.193234	15.472306	17.871999	-0.846874	0.707122	2.449808	0.000000	0.109639	0.000000	0.000009	0.000000	0.000000	0.000000
27.634194	16.423241	17.066080	-1.317817	1.113569	2.513586	0.000000	0.179906	0.000000	0.000010	0.000001	0.000000	0.000000
28.075154	17.814390	15.922765	-1.848968	1.469351	2.608771	0.000000	0.252222	0.000000	0.000010	0.000001	0.000000	0.000000
28.521114	19.733480	14.476853	-2.469554	1.759191	2.738050	0.000000	0.327854	0.000000	0.000011	0.000001	0.000000	0.000000
29.070174	22.172658	12.865749	-1.946609	1.192423	2.895393	0.000000	0.244440	0.000000	0.000011	0.000001	0.000000	0.000000
29.619234	23.958215	11.827012	-1.286165	0.710590	3.005677	0.000000	0.156689	0.000000	0.000012	0.000001	0.000000	0.000000
30.168294	24.964028	11.286654	-0.534872	0.279370	3.066946	0.000000	0.066159	0.000000	0.000012	0.000000	0.000000	0.000000
30.717354	25.119051	11.206187	0.254201	-0.131951	3.078112	0.000000	-0.025544	0.000000	0.000012	-0.000000	0.000000	0.000000
31.015927	25.010119	11.275537	0.176267	-0.129598	3.072887	0.000000	-0.017502	0.000000	0.000012	-0.000000	0.000000	0.000000
31.349260	24.897188	11.371955	0.162525	-0.159657	3.067053	0.000000	-0.017502	0.000000	0.000012	-0.000000	0.000000	0.000000
31.682593	24.793419	11.488413	0.148783	-0.189716	3.061219	0.000000	-0.017502	0.000000	0.000012	-0.000000	0.000000	0.000000
32.017177	24.698474	11.625460	0.134989	-0.219888	3.055363	0.000000	-0.017502	0.000000	0.000011	-0.000000	0.000000	0.000000
32.314499	24.621847	11.764187	0.058406	-0.215965	3.050159	0.000000	-0.009533	0.000000	0.000011	-0.000000	0.000000	0.000000
32.863559	24.135890	12.240613	0.821427	-0.656868	3.020038	0.000000	-0.100024	0.000000	0.000011	-0.000001	0.000000	0.000000
33.412619	22.839101	13.223901	1.526426	-1.144559	2.940647	0.000000	-0.188740	0.000000	0.000011	-0.000001	0.000000	0.000000
33.961679	20.823080	14.784087	2.123606	-1.713773	2.813395	0.000000	-0.274109	0.000000	0.000010	-0.000001	0.000000	0.000000
34.510739	18.230228	17.032302	2.570785	-2.405057	2.640537	0.000000	-0.354615	0.000000	0.000010	-0.000002	0.000000	0.000000
34.956699	16.214237	19.043215	1.965975	-2.085295	2.498738	0.000000	-0.281675	0.000000	0.000009	-0.000001	0.000000	0.000000
35.397659	14.710987	20.706096	1.455994	-1.671401	2.389914	0.000000	-0.212372	0.000000	0.000008	-0.000001	0.000000	0.000000
35.838619	13.626579	21.968899	1.012534	-1.181459	2.311089	0.000000	-0.145487	0.000000	0.000008	-0.000001	0.000000	0.000000
36.279579	12.911468	22.774167	0.615333	-0.637762	2.261364	0.000000	-0.080259	0.000000	0.000008	-0.000001	0.000000	0.000000
36.721789	12.532290	23.085566	0.276869	-0.121710	2.240146	0.000000	-0.021439	0.000000	0.000007	-0.000001	0.000000	0.000000
37.019112	12.375246	23.161826	0.251326	-0.134780	2.233772	0.000000	-0.021439	0.000000	0.000007	-0.000001	0.000000	0.000000
37.352445	12.217240	23.256564	0.222689	-0.149433	2.226626	0.000000	-0.021439	0.000000	0.000007	-0.000001	0.000000	0.000000
37.685779	12.078326	23.361071	0.194053	-0.164086	2.219479	0.000000	-0.021439	0.000000	0.000007	-0.000001	0.000000	0.000000
38.020362	11.958090	23.475793	0.165308	-0.178794	2.212306	0.000000	-0.021439	0.000000	0.000007	-0.000001	0.000000	0.000000
38.317684	11.867385	23.585998	0.168866	-0.249700	2.205932	0.000000	-0.026848	0.000000	0.000006	-0.000001	0.000000	0.000000
38.758644	11.869790	23.544979	-0.174340	0.342368	2.208022	0.000000	0.036336	0.000000	0.000006	-0.000000	0.000000	0.000000
39.199604	12.177231	22.986703	-0.525512	0.918859	2.238039	0.000000	0.099935	0.000000	0.000006	-0.000000	0.000000	0.000000
39.640564	12.803753	21.936573	-0.900692	1.453543	2.296324	0.000000	0.164672	0.000000	0.000006	-0.000000	0.000000	0.000000
40.081524	13.777980	20.442367	-1.317023	1.922091	2.383542	0.000000	0.231284	0.000000	0.000006	0.000000	0.000000	0.000000
40.527484	15.161994	18.549503	-1.797350	2.304467	2.502156	0.000000	0.300936	0.000000	0.000006	0.000000	0.000000	0.000000
41.076544	16.928266	16.422448	-1.400510	1.592394	2.646856	0.000000	0.225369	0.000000	0.000006	0.000000	0.000000	0.000000
41.625604	18.201527	15.010837	-0.904745	0.993743	2.748905	0.000000	0.145805	0.000000	0.000006	-0.000000	0.000000	0.000000
42.174664	18.891839	14.214122	-0.345074	0.465874	2.806492	0.000000	0.063655	0.000000	0.000006	-0.000000	0.000000	0.000000
42.723724	18.950442	13.975556	0.238972	-0.028811	2.818598	0.000000	-0.019625	0.000000	0.000006	-0.000001	0.000000	0.000000
43.022297	18.842180	13.977336	0.173139	-0.013663	2.814937	0.000000	-0.012261	0.000000	0.000006	-0.000001	0.000000	0.000000
43.502297	18.688560	14.006939	0.146901	-0.048010	2.809052	0.000000	-0.012261	0.000000	0.000006	-0.000001	0.000000	0.000000
43.982297	18.560130	14.069515	0.120663	-0.082358	2.803168	0.000000	-0.012261	0.000000	0.000005	-0.000001	0.000000	0.000000
44.462297	18.456888	14.165066	0.094424	-0.116706	2.797283	0.000000	-0.012261	0.000000	0.000005	-0.000001	0.000000	0.000000
44.942297	18.378835	14.293590	0.068186	-0.151053	2.791398	0.000000	-0.012261	0.000000	0.000005	-0.000001	0.000000	0.000000
45.423547	18.326094	14.455373	-0.048919	-0.113870	2.785515	0.000000	0.001540	0.000000	0.000005	-0.000000	0.000000	0.000000
45.720870	18.360018	14.529280	-0.113151	-0.096744	2.785973	0.000000	0.008819	0.000000	0.000004	-0.000000	0.000000	0.000000
46.269930	18.175121	14.916562	0.447910	-0.612775	2.768242	0.000000	-0.073312	0.000000	0.000004	-0.000001	0.000000	0.000000
46.818990	17.387916	15.891007	0.977333	-1.172453	2.705707	0.000000	-0.154143	0.000000	0.000004	-0.000001	0.000000	0.000000
47.368050	16.054009	17.522023	1.437723	-1.815641	2.599478	0.000000	-0.232240	0.000000	0.000003	-0.000001	0.000000	0.000000
47.917110	14.267620	19.925782	1.796558	-2.588154	2.451438	0.000000	-0.306217	0.000000	0.000003	-0.000001	0.000000	0.000000
48.363070	12.877403	22.062982	1.331843	-2.184056	2.330170	0.000000	-0.237915	0.000000	0.000002	-0.000001	0.000000	0.000000
48.804030	11.883024	23.774206	0.931745	-1.681856	2.239720	0.000000	-0.172721	0.000000	0.000002	-0.000001	0.000000	0.000000
49.244990	11.221465	25.006965	0.574216	-1.103133	2.177557	0.000000	-0.109493	0.000000	0.000002	-0.000001	0.000000	0.000000
49.685950	10.862502	25.705170	0.242921	-0.474218	2.142973	0.000000	-0.047513	0.000000	0.000001	-0.000001	0.000000	0.000000
50.128160	10.789862	25.836772	-0.050933	0.112865	2.135587	0.000000	0.008690	0.000000	0.000001	-0.000001	0.000000	0.000000
50.425482	10.828363	25.773122	-0.078560	0.101211	2.138170	0.000000	0.008690	0.000000	0.000001	-0.000001	0.000000	0.000000
50.758816	10.891061	25.710003	-0.109533	0.088145	2.141067	0.000000	0.008690	0.000000	0.000001	-0.000001	0.000000	0.000000
51.092149	10.974407	25.655595	-0.140507	0.075079	2.143964	0.000000	0.008690	0.000000	0.000000	-0.000001	0.000000	0.000000
51.426732	11.078607	25.610262	-0.081719	-0.145798	2.146850	0.000000	-0.008727	0.000000	0.000000	-0.000001	0.000000	0.000000
51.724055	11.135233	25.700485	-0.081429	-0.220680	2.144255	0.000000	-0.013985	0.000000	-0.000000	-0.000001	0.000000	0.000000
52.165015	11.352422	25.609195	-0.412975	0.426919	2.151677	0.000000	0.047678	0.000000	-0.000000	-0.000001	0.000000	0.000000
52.605975	11.869191	24.953190	-0.763389	1.055093	2.186384	0.000000	0.109885	0.000000	-0.000001	-0.000001	0.000000	0.000000
53.046935	12.709150	23.762319	-1.148680	1.635262	2.248771	0.000000	0.173343	0.000000	-0.000001	-0.000001	0.000000	0.000000
53.487895	13.910674	22.090766	-1.586450	2.141028	2.339548	0.000000	0.238775	0.000000	-0.000001	-0.000001	0.000000	0.000000
53.933855	15.549253	19.989590	-2.100934	2.550714	2.461255	0.000000	0.307325	0.000000	-0.000002	-0.000001	0.000000	0.000000
54.482915	17.658849	17.625275	-1.718517	1.780819	2.609816	0.000000	0.233021	0.000000	-0.000002	-0.000001	0.000000	0.000000
55.031975	19.278958	16.032199	-1.214712	1.137767	2.716382	0.000000	0.154584	0.000000	-0.000003	-0.000001	0.000000	0.000000
55.581035	20.295144	15.096894	-0.625106	0.575756	2.779065	0.000000	0.073405	0.000000	-0.000003	-0.000001	0.000000	0.000000
56.130095	20.635629	14.752737	0.008654	0.054755	2.796751	0.000000	-0.009076	0.000000	-0.000003	-0.000001	0.000000	0.000000
56.428668	20.666987	14.703117	-0.059763	0.072887	2.796224	0.000000	-0.001768	0.000000	-0.000003	-0.000001	0.000000	0.000000
56.762001	20.712225	14.662123	-0.075950	0.050096	2.795634	0.000000	-0.001768	0.000000	-0.000004	-0.000001	0.000000	0.000000
57.095334	20.768253	14.636323	-0.092136	0.027305	2.795045	0.000000	-0.001768	0.000000	-0.000004	-0.000001	0.000000	0.000000
57.429918	20.835344	14.625706	-0.108383	0.004428	2.794454	0.000000	-0.001768	0.000000	-0.000004	-0.000001	0.000000	0.000000
57.727240	20.904086	14.629117	-0.177441	0.022323	2.793928	0.000000	0.005532	0.000000	-0.000004	-0.000001	0.000000	0.000000
58.276300	20.742284	14.885553	0.470386	-0.492125	2.774327	0.000000	-0.076827	0.000000	-0.000004	-0.000000	0.000000	0.000000
58.825360	19.883206	15.722732	1.084987	-1.041625	2.709814	0.000000	-0.157823	0.000000	-0.000005	-0.000000	0.000000	0.000000
59.374420	18.387532	17.200284	1.622950	-1.665318	2.601533	0.000000	-0.236019	0.000000	-0.000005	-0.000000	0.000000	0.000000
59.923480	16.360911	19.423454	2.046276	-2.407629	2.451405	0.000000	-0.310029	0.000000	-0.000005	0.000000	0.000000	0.000000
60.369440	14.774652	21.399459	1.523273	-2.004571	2.328434	0.000000	-0.241751	0.000000	-0.000005	-0.000000	0.000000	0.000000
60.810400	13.633655	22.955908	1.074073	-1.511680	2.236278	0.000000	-0.176623	0.000000	-0.000005	-0.000000	0.000000	0.000000
61.251360	12.865763	24.045560	0.673943	-0.950009	2.172371	0.000000	-0.113507	0.000000	-0.000005	-0.000000	0.000000	0.000000
61.692320	12.435894	24.618838	0.304604	-0.345113	2.135985	0.000000	-0.051683	0.000000	-0.000005	-0.000000	0.000000	0.000000
62.134530	12.324459	24.649121	-0.020695	0.214982	2.126710	0.000000	0.004336	0.000000	-0.000005	-0.000001	0.000000	0.000000
62.431853	12.343941	24.525035	-0.044830	0.202362	2.128000	0.000000	0.004336	0.000000	-0.000005	-0.000001	0.000000	0.000000
62.765186	12.382847	24.394843	-0.071888	0.188214	2.129446	0.000000	0.004336	0.000000	-0.000006	-0.000001	0.000000	0.000000
63.098520	12.439792	24.274083	-0.098946	0.174066	2.130891	0.000000	0.004336	0.000000	-0.000006	-0.000001	0.000000	0.000000
63.433103	12.515091	24.162355	-0.126106	0.159865	2.132342	0.000000	0.004336	0.000000	-0.000006	-0.000001	0.000000	0.000000
63.730426	12.597255	24.071045	-0.119347	0.088212	2.133632	0.000000	-0.000896	0.000000	-0.000006	-0.000001	0.000000	0.000000
64.171386	12.862907	23.728146	-0.485379	0.686447	2.146776	0.000000	0.060567	0.000000	-0.000006	-0.000001	0.000000	0.000000
64.612346	13.459892	22.869463	-0.873587	1.253449	2.187149	0.000000	0.122720	0.000000	-0.000007	-0.000001	0.000000	0.000000
65.053306	14.415484	21.534063	-1.301706	1.763420	2.255210	0.000000	0.186271	0.000000	-0.000007	-0.000001	0.000000	0.000000
65.494266	15.773341	19.782707	-1.789297	2.193156	2.351737	0.000000	0.251943	0.000000	-0.000008	-0.000001	0.000000	0.000000
65.940226	17.618664	17.670293	-2.363328	2.523862	2.479398	0.000000	0.320887	0.000000	-0.000008	-0.000001	0.000000	0.000000
66.489286	19.984123	15.307121	-1.919367	1.805576	2.635222	0.000000	0.245877	0.000000	-0.000009	-0.000001	0.000000	0.000000
67.038346	21.784273	13.657887	-1.339831	1.215897	2.748601	0.000000	0.166507	0.000000	-0.000009	-0.000001	0.000000	0.000000
67.587406	22.891963	12.605119	-0.665656	0.712823	2.817525	0.000000	0.084183	0.000000	-0.000010	-0.000001	0.000000	0.000000
68.136466	23.228949	12.073830	0.055537	0.260522	2.840770	0.000000	0.000365	0.000000	-0.000010	-0.000000	0.000000	0.000000
68.435038	23.235869	11.907434	-0.018015	0.265233	2.843096	0.000000	0.007788	0.000000	-0.000010	-0.000000	0.000000	0.000000
68.768372	23.252662	11.740599	-0.032365	0.235270	2.845692	0.000000	0.007788	0.000000	-0.000010	-0.000000	0.000000	0.000000
69.101705	23.279022	11.593740	-0.046715	0.205307	2.848288	0.000000	0.007788	0.000000	-0.000010	-0.000000	0.000000	0.000000
69.436288	23.315101	11.466418	-0.061119	0.175232	2.850894	0.000000	0.007788	0.000000	-0.000010	-0.000000	0.000000	0.000000
69.733611	23.355251	11.370163	-0.134948	0.178217	2.853209	0.000000	0.015244	0.000000	-0.000010	-0.000000	0.000000	0.000000
70.282671	23.102331	11.402129	0.592864	-0.236780	2.838399	0.000000	-0.069113	0.000000	-0.000011	0.000000	0.000000	0.000000
