#ParticleID	Turn	x[m]	xp	y[m]	yp	z[m]	dE[GeV]# s	beta_x	beta_y	alpha_x	alpha_y	D_x	D_y	D_px	D_py	orbit_x	orbit_px	orbit_y	orbit_py
0.300000	11.804366	25.055973	-0.010115	-0.026831	2.618254	0.000000	-0.000040	0.000000	-0.000002	0.000002	0.000000	0.000000
0.601250	11.818148	25.075763	-0.035637	-0.038863	2.618241	0.000000	-0.000040	0.000000	-0.000001	0.000002	0.000000	0.000000
0.898573	11.846829	25.102404	-0.031775	-0.112296	2.618228	0.000000	-0.006461	0.000000	-0.000001	0.000002	0.000000	0.000000
1.339533	12.026870	24.922967	-0.378066	0.517672	2.631672	0.000000	0.067499	0.000000	0.000000	0.000002	0.000000	0.000000
1.780493	12.518745	24.196252	-0.741628	1.124086	2.677868	0.000000	0.142228	0.000000	0.000001	0.000002	0.000000	0.000000
2.221453	13.344925	22.955324	-1.139074	1.679355	2.757342	0.000000	0.218576	0.000000	0.000002	0.000002	0.000000	0.000000
2.662413	14.543158	21.256645	-1.588561	2.158215	2.870998	0.000000	0.297414	0.000000	0.000002	0.000002	0.000000	0.000000
3.108373	16.188905	19.152594	-2.114910	2.540012	3.021994	0.000000	0.380129	0.000000	0.000003	0.000002	0.000000	0.000000
3.657433	18.299339	16.789379	-1.706059	1.789504	3.205435	0.000000	0.287091	0.000000	0.000004	0.000002	0.000000	0.000000
4.206493	19.891573	15.175901	-1.176700	1.166459	3.336317	0.000000	0.188962	0.000000	0.000005	0.000002	0.000000	0.000000
4.755553	20.853138	14.197237	-0.564225	0.626498	3.412320	0.000000	0.087480	0.000000	0.000006	0.000001	0.000000	0.000000
5.304613	21.116115	13.783677	0.088104	0.131162	3.432094	0.000000	-0.015553	0.000000	0.000007	0.000001	0.000000	0.000000
5.603185	21.100674	13.690498	0.018780	0.144907	3.430128	0.000000	-0.006586	0.000000	0.000007	0.000001	0.000000	0.000000
5.936519	21.093422	13.602180	0.002977	0.120048	3.427932	0.000000	-0.006586	0.000000	0.000008	0.000001	0.000000	0.000000
6.269852	21.096705	13.530435	-0.012826	0.095189	3.425736	0.000000	-0.006586	0.000000	0.000008	0.000001	0.000000	0.000000
6.604435	21.110595	13.475086	-0.028688	0.070236	3.423532	0.000000	-0.006586	0.000000	0.000009	0.000001	0.000000	0.000000
6.901758	21.131845	13.439913	-0.097993	0.083177	3.421573	0.000000	0.002353	0.000000	0.000009	0.000001	0.000000	0.000000
7.450818	20.879339	13.609537	0.555160	-0.393936	3.394665	0.000000	-0.100224	0.000000	0.000010	0.000001	0.000000	0.000000
7.999878	19.926979	14.315329	1.169100	-0.899107	3.311841	0.000000	-0.201023	0.000000	0.000010	0.000001	0.000000	0.000000
8.548938	18.342037	15.607561	1.700460	-1.468320	3.174572	0.000000	-0.298256	0.000000	0.000010	0.000000	0.000000	0.000000
9.097998	16.236463	17.578276	2.111708	-2.142118	2.985291	0.000000	-0.390199	0.000000	0.000010	0.000000	0.000000	0.000000
9.543958	14.593782	19.334251	1.584860	-1.778755	2.829584	0.000000	-0.308497	0.000000	0.000011	0.000000	0.000000	0.000000
9.984918	13.399096	20.712845	1.134703	-1.335696	2.710794	0.000000	-0.230793	0.000000	0.000011	0.000001	0.000000	0.000000
10.425878	12.577138	21.672303	0.736388	-0.831864	2.625656	0.000000	-0.155718	0.000000	0.000011	0.000001	0.000000	0.000000
10.866838	12.090355	22.168971	0.371716	-0.290183	2.573202	0.000000	-0.082416	0.000000	0.000011	0.000001	0.000000	0.000000
11.309048	11.916375	22.179724	0.053141	0.210256	2.552813	0.000000	-0.016312	0.000000	0.000012	0.000001	0.000000	0.000000
11.606371	11.892215	22.058858	0.028119	0.196258	2.547963	0.000000	-0.016312	0.000000	0.000012	0.000001	0.000000	0.000000
12.086371	11.884610	21.881298	-0.012275	0.173660	2.540133	0.000000	-0.016312	0.000000	0.000013	0.000001	0.000000	0.000000
12.566371	11.915783	21.725431	-0.052669	0.151062	2.532302	0.000000	-0.016312	0.000000	0.000014	0.000001	0.000000	0.000000
13.046371	11.985735	21.591259	-0.093064	0.128464	2.524472	0.000000	-0.016312	0.000000	0.000014	0.000001	0.000000	0.000000
13.526371	12.094466	21.478780	-0.133458	0.105866	2.516642	0.000000	-0.016312	0.000000	0.000015	0.000001	0.000000	0.000000
14.007621	12.242410	21.387788	-0.173958	0.083209	2.508791	0.000000	-0.016312	0.000000	0.000016	0.000001	0.000000	0.000000
14.304943	12.353292	21.342470	-0.168690	0.016882	2.503941	0.000000	-0.022451	0.000000	0.000016	0.000001	0.000000	0.000000
14.745903	12.660541	21.094007	-0.530724	0.544433	2.509670	0.000000	0.048463	0.000000	0.000017	0.000002	0.000000	0.000000
15.186863	13.296519	20.389473	-0.917006	1.047214	2.546760	0.000000	0.119929	0.000000	0.000018	0.000002	0.000000	0.000000
15.627823	14.290285	19.260924	-1.345183	1.502347	2.615636	0.000000	0.192761	0.000000	0.000019	0.000003	0.000000	0.000000
16.068783	15.687238	17.759708	-1.834817	1.889124	2.717080	0.000000	0.267789	0.000000	0.000020	0.000003	0.000000	0.000000
16.514743	17.574866	15.932630	-2.413038	2.190690	2.853943	0.000000	0.346328	0.000000	0.000022	0.000004	0.000000	0.000000
17.063803	19.999370	13.892606	-1.976556	1.546726	3.020370	0.000000	0.259011	0.000000	0.000024	0.000003	0.000000	0.000000
17.612863	21.864597	12.495447	-1.400459	1.012932	3.137521	0.000000	0.167100	0.000000	0.000025	0.000002	0.000000	0.000000
18.161923	23.038796	11.641637	-0.725442	0.551286	3.203319	0.000000	0.072225	0.000000	0.000026	0.000001	0.000000	0.000000
18.710983	23.439027	11.270361	0.000818	0.128908	3.216596	0.000000	-0.023931	0.000000	0.000027	0.000001	0.000000	0.000000
19.009556	23.478918	11.183912	-0.073195	0.131193	3.211960	0.000000	-0.015529	0.000000	0.000027	0.000001	0.000000	0.000000
19.342889	23.532472	11.106556	-0.087468	0.100875	3.206783	0.000000	-0.015529	0.000000	0.000027	0.000001	0.000000	0.000000
19.676223	23.595542	11.049412	-0.101741	0.070557	3.201607	0.000000	-0.015529	0.000000	0.000027	0.000001	0.000000	0.000000
20.010806	23.668711	11.012243	-0.233336	0.094687	3.196431	0.000000	0.000308	0.000000	0.000027	0.000001	0.000000	0.000000
20.308129	23.811401	10.964037	-0.308782	0.096086	3.196522	0.000000	0.008658	0.000000	0.000028	0.000001	0.000000	0.000000
20.857189	23.739783	11.080423	0.438449	-0.309312	3.175062	0.000000	-0.086715	0.000000	0.000028	-0.000000	0.000000	0.000000
21.406249	22.859834	11.651399	1.154709	-0.736741	3.101582	0.000000	-0.180550	0.000000	0.000028	-0.000001	0.000000	0.000000
21.955309	21.233710	12.717634	1.789407	-1.216648	2.977386	0.000000	-0.271182	0.000000	0.000027	-0.000002	0.000000	0.000000
22.504369	18.976273	14.355072	2.297710	-1.783213	2.804676	0.000000	-0.357005	0.000000	0.000026	-0.000003	0.000000	0.000000
22.950329	17.197105	15.825301	1.705891	-1.499650	2.662758	0.000000	-0.279809	0.000000	0.000025	-0.000002	0.000000	0.000000
23.391289	15.922012	16.997581	1.196707	-1.148706	2.555693	0.000000	-0.206254	0.000000	0.000024	-0.000001	0.000000	0.000000
23.832249	15.070264	17.836040	0.742197	-0.745497	2.480515	0.000000	-0.135049	0.000000	0.000023	-0.000001	0.000000	0.000000
24.273209	14.602947	18.302528	0.321595	-0.308369	2.436366	0.000000	-0.065381	0.000000	0.000023	-0.000000	0.000000	0.000000
24.715418	14.498832	18.375576	-0.048852	0.097669	2.422742	0.000000	-0.002399	0.000000	0.000023	0.000000	0.000000	0.000000
25.012741	14.533994	18.322354	-0.069408	0.081334	2.422028	0.000000	-0.002399	0.000000	0.000023	0.000000	0.000000	0.000000
25.346075	14.587948	18.274236	-0.092453	0.063021	2.421229	0.000000	-0.002399	0.000000	0.000023	0.000000	0.000000	0.000000
25.679408	14.657265	18.238326	-0.115499	0.044708	2.420429	0.000000	-0.002399	0.000000	0.000023	0.000000	0.000000	0.000000
26.013991	14.741993	18.214929	-0.019034	-0.121442	2.419602	0.000000	-0.022028	0.000000	0.000024	0.000000	0.000000	0.000000
26.311314	14.759310	18.292068	-0.003023	-0.182854	2.413053	0.000000	-0.027944	0.000000	0.000024	0.000000	0.000000	0.000000
26.752274	14.943799	18.254980	-0.416944	0.266641	2.415838	0.000000	0.040589	0.000000	0.000024	0.000001	0.000000	0.000000
27.193234	15.500322	17.825329	-0.849914	0.704004	2.448916	0.000000	0.109585	0.000000	0.000024	0.000001	0.000000	0.000000
27.634194	16.454304	17.022664	-1.321714	1.109336	2.512664	0.000000	0.179828	0.000000	0.000025	0.000002	0.000000	0.000000
28.075154	17.849331	15.883505	-1.853899	1.464193	2.607809	0.000000	0.252120	0.000000	0.000026	0.000003	0.000000	0.000000
28.521114	19.773369	14.442521	-2.475757	1.753342	2.737036	0.000000	0.327726	0.000000	0.000027	0.000003	0.000000	0.000000
29.070174	22.218822	12.837076	-1.951764	1.187903	2.894317	0.000000	0.244345	0.000000	0.000029	0.000002	0.000000	0.000000
29.619234	24.009296	11.802724	-1.289909	0.707076	3.004558	0.000000	0.156630	0.000000	0.000030	0.000001	0.000000	0.000000
30.168294	25.018320	11.265789	-0.536941	0.276613	3.065804	0.000000	0.066137	0.000000	0.000030	0.000000	0.000000	0.000000
30.717354	25.174622	11.188027	0.253954	-0.134148	3.076969	0.000000	-0.025529	0.000000	0.000030	-0.000001	0.000000	0.000000
31.015927	25.065909	11.258737	0.175914	-0.131904	3.071746	0.000000	-0.017491	0.000000	0.000030	-0.000000	0.000000	0.000000
31.349260	24.953203	11.356713	0.162204	-0.162026	3.065916	0.000000	-0.017491	0.000000	0.000030	-0.000000	0.000000	0.000000
31.682593	24.849637	11.474771	0.148494	-0.192148	3.060086	0.000000	-0.017491	0.000000	0.000030	-0.000000	0.000000	0.000000
32.017177	24.754874	11.613466	0.134733	-0.222382	3.054234	0.000000	-0.017491	0.000000	0.000030	-0.000000	0.000000	0.000000
32.314499	24.678391	11.753693	0.058040	-0.218547	3.049033	0.000000	-0.009527	0.000000	0.000030	-0.000000	0.000000	0.000000
32.863559	24.191802	12.232855	0.822934	-0.659297	3.018926	0.000000	-0.099981	0.000000	0.000029	-0.000001	0.000000	0.000000
33.412619	22.892372	13.218805	1.529699	-1.147008	2.939569	0.000000	-0.188662	0.000000	0.000028	-0.000002	0.000000	0.000000
33.961679	20.871886	14.781772	2.128414	-1.716417	2.812369	0.000000	-0.273996	0.000000	0.000027	-0.000003	0.000000	0.000000
34.510739	18.273062	17.033082	2.576788	-2.408083	2.639584	0.000000	-0.354471	0.000000	0.000025	-0.000004	0.000000	0.000000
34.956699	16.252313	19.046831	1.970677	-2.088601	2.497844	0.000000	-0.281555	0.000000	0.000023	-0.000003	0.000000	0.000000
35.397659	14.745406	20.712694	1.459619	-1.674832	2.389069	0.000000	-0.212274	0.000000	0.000022	-0.000003	0.000000	0.000000
35.838619	13.658212	21.978521	1.015248	-1.184860	2.310283	0.000000	-0.145411	0.000000	0.000021	-0.000002	0.000000	0.000000
36.279579	12.941061	22.786718	0.617260	-0.640978	2.260588	0.000000	-0.080203	0.000000	0.000020	-0.000002	0.000000	0.000000
36.721789	12.560494	23.100825	0.278164	-0.124625	2.239391	0.000000	-0.021400	0.000000	0.000019	-0.000001	0.000000	0.000000
37.019112	12.402667	23.178818	0.252661	-0.137695	2.233029	0.000000	-0.021400	0.000000	0.000019	-0.000001	0.000000	0.000000
37.352445	12.243757	23.275500	0.224070	-0.152349	2.225896	0.000000	-0.021400	0.000000	0.000018	-0.000001	0.000000	0.000000
37.685779	12.103908	23.381950	0.195478	-0.167003	2.218763	0.000000	-0.021400	0.000000	0.000018	-0.000001	0.000000	0.000000
38.020362	11.982702	23.498624	0.166779	-0.181711	2.211603	0.000000	-0.021400	0.000000	0.000017	-0.000001	0.000000	0.000000
38.317684	11.891111	23.610564	0.170432	-0.252673	2.205241	0.000000	-0.026807	0.000000	0.000017	-0.000001	0.000000	0.000000
38.758644	11.892369	23.571871	-0.173298	0.340087	2.207346	0.000000	0.036360	0.000000	0.000017	-0.000001	0.000000	0.000000
39.199604	12.199103	23.015262	-0.524946	0.917374	2.237369	0.000000	0.099941	0.000000	0.000016	-0.000000	0.000000	0.000000
39.640564	12.825326	21.966065	-0.900577	1.452921	2.295653	0.000000	0.164661	0.000000	0.000016	-0.000000	0.000000	0.000000
40.081524	13.799649	20.472015	-1.317353	1.922361	2.382862	0.000000	0.231256	0.000000	0.000016	0.000000	0.000000	0.000000
40.527484	15.184163	18.578512	-1.798143	2.305622	2.501460	0.000000	0.300890	0.000000	0.000017	0.000001	0.000000	0.000000
41.076544	16.950840	16.450616	-1.400448	1.592779	2.646140	0.000000	0.225346	0.000000	0.000017	0.000000	0.000000	0.000000
41.625604	18.223562	15.038988	-0.903831	0.993386	2.748183	0.000000	0.145805	0.000000	0.000017	-0.000000	0.000000	0.000000
42.174664	18.912429	14.243082	-0.343373	0.464750	2.805777	0.000000	0.063678	0.000000	0.000017	-0.000001	0.000000	0.000000
42.723724	18.968785	14.006205	0.241340	-0.030782	2.817902	0.000000	-0.019579	0.000000	0.000016	-0.000001	0.000000	0.000000
43.022297	18.859134	14.009102	0.175465	-0.015509	2.814255	0.000000	-0.012217	0.000000	0.000016	-0.000001	0.000000	0.000000
43.502297	18.703280	14.040441	0.149230	-0.049781	2.808391	0.000000	-0.012217	0.000000	0.000015	-0.000001	0.000000	0.000000
43.982297	18.572612	14.104681	0.122994	-0.084053	2.802527	0.000000	-0.012217	0.000000	0.000014	-0.000001	0.000000	0.000000
44.462297	18.467131	14.201822	0.096759	-0.118324	2.796664	0.000000	-0.012217	0.000000	0.000014	-0.000001	0.000000	0.000000
44.942297	18.386835	14.331864	0.070524	-0.152596	2.790800	0.000000	-0.012217	0.000000	0.000013	-0.000001	0.000000	0.000000
45.423547	18.331842	14.495094	-0.046606	-0.115139	2.784939	0.000000	0.001581	0.000000	0.000012	-0.000001	0.000000	0.000000
45.720870	18.364389	14.569740	-0.110838	-0.097859	2.785409	0.000000	0.008858	0.000000	0.000012	-0.000001	0.000000	0.000000
46.269930	18.176892	14.958929	0.450303	-0.615151	2.767705	0.000000	-0.073255	0.000000	0.000011	-0.000002	0.000000	0.000000
46.818990	17.387092	15.936748	0.979638	-1.176259	2.705207	0.000000	-0.154069	0.000000	0.000010	-0.000002	0.000000	0.000000
47.368050	16.050777	17.572848	1.439776	-1.821149	2.599022	0.000000	-0.232151	0.000000	0.000009	-0.000002	0.000000	0.000000
47.917110	14.262338	19.983762	1.798215	-2.595755	2.451036	0.000000	-0.306114	0.000000	0.000008	-0.000003	0.000000	0.000000
48.363070	12.870676	22.127188	1.333440	-2.190358	2.329813	0.000000	-0.237822	0.000000	0.000007	-0.000002	0.000000	0.000000
48.804030	11.874887	23.843292	0.933356	-1.686578	2.239402	0.000000	-0.172636	0.000000	0.000006	-0.000002	0.000000	0.000000
49.244990	11.211873	25.079438	0.575915	-1.106059	2.177275	0.000000	-0.109417	0.000000	0.000005	-0.000002	0.000000	0.000000
49.685950	10.851345	25.779381	0.244786	-0.475216	2.142724	0.000000	-0.047443	0.000000	0.000004	-0.000002	0.000000	0.000000
50.128160	10.776951	25.910990	-0.048849	0.113660	2.135367	0.000000	0.008754	0.000000	0.000003	-0.000002	0.000000	0.000000
50.425482	10.814221	25.846858	-0.076504	0.102037	2.137971	0.000000	0.008754	0.000000	0.000003	-0.000002	0.000000	0.000000
50.758816	10.875559	25.783177	-0.107508	0.089006	2.140889	0.000000	0.008754	0.000000	0.000002	-0.000002	0.000000	0.000000
51.092149	10.957565	25.728183	-0.138512	0.075976	2.143808	0.000000	0.008754	0.000000	0.000001	-0.000002	0.000000	0.000000
51.426732	11.060441	25.682240	-0.079903	-0.145451	2.146716	0.000000	-0.008661	0.000000	0.000001	-0.000002	0.000000	0.000000
51.724055	11.115998	25.772246	-0.079696	-0.220474	2.144141	0.000000	-0.013919	0.000000	0.000000	-0.000002	0.000000	0.000000
52.165015	11.331452	25.679937	-0.410761	0.429015	2.151592	0.000000	0.047741	0.000000	-0.000001	-0.000002	0.000000	0.000000
52.605975	11.846020	25.021282	-0.760592	1.058985	2.186326	0.000000	0.109946	0.000000	-0.000001	-0.000002	0.000000	0.000000
53.046935	12.683210	23.826249	-1.145173	1.640772	2.248741	0.000000	0.173403	0.000000	-0.000002	-0.000002	0.000000	0.000000
53.487895	13.881271	22.149212	-1.582073	2.147905	2.339545	0.000000	0.238835	0.000000	-0.000003	-0.000002	0.000000	0.000000
53.933855	15.515480	20.041403	-2.095477	2.558649	2.461279	0.000000	0.307385	0.000000	-0.000004	-0.000002	0.000000	0.000000
54.482915	17.619534	17.669512	-1.713943	1.786762	2.609873	0.000000	0.233080	0.000000	-0.000005	-0.000002	0.000000	0.000000
55.031975	19.235257	16.070806	-1.211344	1.142141	2.716472	0.000000	0.154641	0.000000	-0.000006	-0.000002	0.000000	0.000000
55.581035	20.248519	15.131412	-0.623183	0.578872	2.779185	0.000000	0.073458	0.000000	-0.000007	-0.000002	0.000000	0.000000
56.130095	20.587751	14.784418	0.008998	0.056836	2.796900	0.000000	-0.009027	0.000000	-0.000008	-0.000001	0.000000	0.000000
56.428668	20.618841	14.733495	-0.059329	0.075088	2.796387	0.000000	-0.001719	0.000000	-0.000008	-0.000001	0.000000	0.000000
56.762001	20.663801	14.691020	-0.075553	0.052337	2.795814	0.000000	-0.001719	0.000000	-0.000009	-0.000001	0.000000	0.000000
57.095334	20.719577	14.663713	-0.091776	0.029585	2.795242	0.000000	-0.001719	0.000000	-0.000009	-0.000001	0.000000	0.000000
57.429918	20.786439	14.651557	-0.108060	0.006748	2.794667	0.000000	-0.001719	0.000000	-0.000009	-0.000001	0.000000	0.000000
57.727240	20.854999	14.653578	-0.177026	0.024744	2.794156	0.000000	0.005582	0.000000	-0.000010	-0.000001	0.000000	0.000000
58.276300	20.693645	14.907727	0.469158	-0.490356	2.774581	0.000000	-0.076784	0.000000	-0.000011	-0.000001	0.000000	0.000000
58.825360	19.836783	15.743263	1.082202	-1.040384	2.710089	0.000000	-0.157789	0.000000	-0.000011	-0.000001	0.000000	0.000000
59.374420	18.344937	17.219699	1.618806	-1.664515	2.601824	0.000000	-0.235995	0.000000	-0.000011	-0.000000	0.000000	0.000000
59.923480	16.323483	19.442199	2.041064	-2.407206	2.451708	0.000000	-0.310014	0.000000	-0.000011	0.000000	0.000000	0.000000
60.369440	14.741359	21.417526	1.519180	-2.003479	2.328745	0.000000	-0.241728	0.000000	-0.000011	-0.000000	0.000000	0.000000
60.810400	13.603553	22.972735	1.070901	-1.509972	2.236602	0.000000	-0.176592	0.000000	-0.000012	-0.000001	0.000000	0.000000
61.251360	12.838106	24.060638	0.671549	-0.947763	2.172710	0.000000	-0.113467	0.000000	-0.000012	-0.000001	0.000000	0.000000
61.692320	12.410047	24.631735	0.302878	-0.342431	2.136344	0.000000	-0.051634	0.000000	-0.000012	-0.000001	0.000000	0.000000
62.134530	12.299873	24.659497	-0.021891	0.217947	2.127093	0.000000	0.004393	0.000000	-0.000013	-0.000001	0.000000	0.000000
62.431853	12.320081	24.533651	-0.046076	0.205317	2.128400	0.000000	0.004393	0.000000	-0.000013	-0.000001	0.000000	0.000000
62.765186	12.359836	24.401493	-0.073189	0.191158	2.129865	0.000000	0.004393	0.000000	-0.000014	-0.000001	0.000000	0.000000
63.098520	12.417667	24.278774	-0.100303	0.176998	2.131330	0.000000	0.004393	0.000000	-0.000014	-0.000001	0.000000	0.000000
63.433103	12.493892	24.165088	-0.127518	0.162786	2.132800	0.000000	0.004393	0.000000	-0.000015	-0.000001	0.000000	0.000000
63.730426	12.576910	24.072044	-0.120856	0.091115	2.134107	0.000000	-0.000841	0.000000	-0.000015	-0.000001	0.000000	0.000000
64.171386	12.843701	23.726597	-0.486464	0.689301	2.147278	0.000000	0.060635	0.000000	-0.000016	-0.000002	0.000000	0.000000
64.612346	13.441474	22.865466	-0.874297	1.256123	2.187685	0.000000	0.122801	0.000000	-0.000017	-0.000002	0.000000	0.000000
65.053306	14.397540	21.527832	-1.302075	1.765794	2.255786	0.000000	0.186366	0.000000	-0.000018	-0.000003	0.000000	0.000000
65.494266	15.755577	19.774555	-1.789340	2.195122	2.352358	0.000000	0.252054	0.000000	-0.000019	-0.000003	0.000000	0.000000
65.940226	17.600793	17.660607	-2.363047	2.525324	2.480074	0.000000	0.321015	0.000000	-0.000021	-0.000004	0.000000	0.000000
66.489286	19.966352	15.295835	-1.919831	1.807047	2.635963	0.000000	0.245982	0.000000	-0.000022	-0.000003	0.000000	0.000000
67.038346	21.767409	13.644933	-1.341009	1.217481	2.749394	0.000000	0.166587	0.000000	-0.000024	-0.000002	0.000000	0.000000
67.587406	22.876747	12.590312	-0.667465	0.714634	2.818355	0.000000	0.084236	0.000000	-0.000025	-0.000001	0.000000	0.000000
68.136466	23.216009	12.056852	0.053226	0.262689	2.841622	0.000000	0.000392	0.000000	-0.000025	-0.000001	0.000000	0.000000
68.435038	23.224296	11.889206	-0.020308	0.267291	2.843957	0.000000	0.007818	0.000000	-0.000026	-0.000001	0.000000	0.000000
68.768372	23.242621	11.721026	-0.034666	0.237251	2.846563	0.000000	0.007818	0.000000	-0.000026	-0.000001	0.000000	0.000000
69.101705	23.270518	11.572871	-0.049025	0.207212	2.849169	0.000000	0.007818	0.000000	-0.000026	-0.000001	0.000000	0.000000
69.436288	23.308146	11.444301	-0.063438	0.177059	2.851785	0.000000	0.007818	0.000000	-0.000026	-0.000001	0.000000	0.000000
69.733611	23.349677	11.346980	-0.137267	0.179919	2.854110	0.000000	0.015277	0.000000	-0.000026	-0.000001	0.000000	0.000000
70.282671	23.099383	11.376714	0.590427	-0.234393	2.839310	0.000000	-0.069109	0.000000	-0.000027	0.000000	0.000000	0.000000
