#ParticleID	Turn	x[m]	xp	y[m]	yp	z[m]	dE[GeV]# s	beta_x	beta_y	alpha_x	alpha_y	D_x	D_y	D_px	D_py	orbit_x	orbit_px	orbit_y	orbit_py
0.300000	11.825400	24.971854	-0.012454	-0.027665	2.618144	0.000000	0.000000	0.000000	-0.000001	0.000001	0.000000	0.000000
0.601250	11.840579	24.992160	-0.037932	-0.039738	2.618144	0.000000	0.000000	0.000000	-0.000000	0.000001	0.000000	0.000000
0.898573	11.870612	25.019333	-0.033969	-0.113008	2.618144	0.000000	-0.006420	0.000000	-0.000000	0.000001	0.000000	0.000000
1.339533	12.052843	24.841491	-0.380857	0.514780	2.631606	0.000000	0.067538	0.000000	0.000000	0.000001	0.000000	0.000000
1.780493	12.547489	24.118243	-0.745147	1.119146	2.677819	0.000000	0.142265	0.000000	0.000000	0.000001	0.000000	0.000000
2.221453	13.377150	22.882496	-1.143479	1.672592	2.757309	0.000000	0.218612	0.000000	0.000001	0.000001	0.000000	0.000000
2.662413	14.579731	21.190475	-1.594054	2.149936	2.870982	0.000000	0.297450	0.000000	0.000001	0.000001	0.000000	0.000000
3.108373	16.230959	19.094351	-2.121754	2.530590	3.021993	0.000000	0.380164	0.000000	0.000001	0.000001	0.000000	0.000000
3.657433	18.348350	16.740169	-1.711810	1.782378	3.205454	0.000000	0.287126	0.000000	0.000001	0.000001	0.000000	0.000000
4.206493	19.946109	15.133495	-1.180953	1.161120	3.336357	0.000000	0.188996	0.000000	0.000002	0.000001	0.000000	0.000000
4.755553	20.911378	14.159891	-0.566679	0.622567	3.412378	0.000000	0.087512	0.000000	0.000002	0.000000	0.000000	0.000000
5.304613	21.175976	13.750008	0.087622	0.128357	3.432170	0.000000	-0.015523	0.000000	0.000002	0.000000	0.000000	0.000000
5.603185	21.160906	13.658565	0.018180	0.141982	3.430213	0.000000	-0.006555	0.000000	0.000002	0.000000	0.000000	0.000000
5.936519	21.154039	13.572209	0.002422	0.117086	3.428027	0.000000	-0.006555	0.000000	0.000003	0.000000	0.000000	0.000000
6.269852	21.157676	13.502451	-0.013335	0.092189	3.425842	0.000000	-0.006555	0.000000	0.000003	0.000000	0.000000	0.000000
6.604435	21.171892	13.449122	-0.029152	0.067199	3.423649	0.000000	-0.006555	0.000000	0.000003	0.000000	0.000000	0.000000
6.901758	21.193406	13.415765	-0.098580	0.080044	3.421700	0.000000	0.002385	0.000000	0.000003	0.000000	0.000000	0.000000
7.450818	20.940409	13.588469	0.556634	-0.396446	3.394807	0.000000	-0.100196	0.000000	0.000003	0.000000	0.000000	0.000000
7.999878	19.985340	14.296759	1.172531	-0.901173	3.311998	0.000000	-0.201000	0.000000	0.000003	0.000000	0.000000	0.000000
8.548938	18.395660	15.591084	1.705606	-1.470089	3.174740	0.000000	-0.298239	0.000000	0.000003	0.000000	0.000000	0.000000
9.097998	16.283656	17.563637	2.118205	-2.143717	2.985467	0.000000	-0.390188	0.000000	0.000003	0.000000	0.000000	0.000000
9.543958	14.635825	19.321326	1.589953	-1.780985	2.829766	0.000000	-0.308481	0.000000	0.000003	0.000000	0.000000	0.000000
9.984918	13.437174	20.702127	1.138636	-1.338451	2.710984	0.000000	-0.230772	0.000000	0.000004	0.000000	0.000000	0.000000
10.425878	12.612192	21.664201	0.739339	-0.835018	2.625858	0.000000	-0.155692	0.000000	0.000004	0.000000	0.000000	0.000000
10.866838	12.123187	22.163774	0.373822	-0.293592	2.573416	0.000000	-0.082384	0.000000	0.000004	0.000000	0.000000	0.000000
11.309048	11.947683	22.177598	0.054576	0.206748	2.553043	0.000000	-0.016276	0.000000	0.000004	0.000000	0.000000	0.000000
11.606371	11.922651	22.058813	0.029617	0.192768	2.548204	0.000000	-0.016276	0.000000	0.000004	0.000000	0.000000	0.000000
12.086371	11.913560	21.884589	-0.010678	0.170200	2.540391	0.000000	-0.016276	0.000000	0.000004	0.000000	0.000000	0.000000
12.566371	11.943153	21.732030	-0.050973	0.147631	2.532578	0.000000	-0.016276	0.000000	0.000005	0.000000	0.000000	0.000000
13.046371	12.011429	21.601137	-0.091268	0.125062	2.524766	0.000000	-0.016276	0.000000	0.000005	0.000000	0.000000	0.000000
13.526371	12.118388	21.491910	-0.131563	0.102494	2.516953	0.000000	-0.016276	0.000000	0.000005	0.000000	0.000000	0.000000
14.007621	12.264459	21.404149	-0.171963	0.079866	2.509120	0.000000	-0.016276	0.000000	0.000005	0.000000	0.000000	0.000000
14.304943	12.374137	21.360813	-0.166579	0.013507	2.504281	0.000000	-0.022417	0.000000	0.000005	0.000000	0.000000	0.000000
14.745903	12.679708	21.115087	-0.529019	0.541626	2.510027	0.000000	0.048506	0.000000	0.000006	0.000001	0.000000	0.000000
15.186863	13.314332	20.412730	-0.915628	1.045102	2.547140	0.000000	0.119982	0.000000	0.000006	0.000001	0.000000	0.000000
15.627823	14.307003	19.285700	-1.344070	1.501027	2.616042	0.000000	0.192824	0.000000	0.000006	0.000001	0.000000	0.000000
16.068783	15.703073	17.785276	-1.833919	1.888656	2.717517	0.000000	0.267863	0.000000	0.000007	0.000001	0.000000	0.000000
16.514743	17.589978	15.958223	-2.412311	2.191101	2.854417	0.000000	0.346414	0.000000	0.000007	0.000001	0.000000	0.000000
17.063803	20.013267	13.918055	-1.975083	1.546578	3.020888	0.000000	0.259081	0.000000	0.000008	0.000001	0.000000	0.000000
17.612863	21.876511	12.521368	-1.398345	1.012215	3.138073	0.000000	0.167153	0.000000	0.000008	0.000001	0.000000	0.000000
18.161923	23.048101	11.668680	-0.722834	0.549949	3.203896	0.000000	0.072259	0.000000	0.000009	0.000000	0.000000	0.000000
18.710983	23.445282	11.299254	0.003734	0.126856	3.217187	0.000000	-0.023916	0.000000	0.000009	0.000000	0.000000	0.000000
19.009556	23.483445	11.213957	-0.070297	0.129306	3.212556	0.000000	-0.015510	0.000000	0.000009	0.000000	0.000000	0.000000
19.342889	23.535064	11.137827	-0.084562	0.099084	3.207386	0.000000	-0.015510	0.000000	0.000009	0.000000	0.000000	0.000000
19.676223	23.596194	11.081844	-0.098826	0.068862	3.202215	0.000000	-0.015510	0.000000	0.000009	0.000000	0.000000	0.000000
20.010806	23.667409	11.045777	-0.230406	0.093255	3.197046	0.000000	0.000330	0.000000	0.000009	0.000000	0.000000	0.000000
20.308129	23.808352	10.998396	-0.305837	0.094838	3.197144	0.000000	0.008682	0.000000	0.000009	0.000000	0.000000	0.000000
20.857189	23.733570	11.116688	0.441230	-0.311554	3.175691	0.000000	-0.086711	0.000000	0.000009	-0.000000	0.000000	0.000000
21.406249	22.850749	11.690740	1.157130	-0.740136	3.102207	0.000000	-0.180566	0.000000	0.000009	-0.000000	0.000000	0.000000
21.955309	21.222245	12.761442	1.791297	-1.221438	2.977996	0.000000	-0.271219	0.000000	0.000009	-0.000001	0.000000	0.000000
22.504369	18.963088	14.405057	2.298935	-1.789739	2.805261	0.000000	-0.357060	0.000000	0.000008	-0.000001	0.000000	0.000000
22.950329	17.182772	15.880605	1.707254	-1.505002	2.663320	0.000000	-0.279850	0.000000	0.000008	-0.000001	0.000000	0.000000
23.391289	15.906395	17.056998	1.198269	-1.152646	2.556240	0.000000	-0.206281	0.000000	0.000008	-0.000000	0.000000	0.000000
23.832249	15.053156	17.898240	0.744029	-0.747845	2.481053	0.000000	-0.135061	0.000000	0.000008	-0.000000	0.000000	0.000000
24.273209	14.584073	18.366055	0.323782	-0.309018	2.436901	0.000000	-0.065380	0.000000	0.000008	-0.000000	0.000000	0.000000
24.715418	14.477831	18.438910	-0.046257	0.098586	2.423280	0.000000	-0.002386	0.000000	0.000008	0.000000	0.000000	0.000000
25.012741	14.511457	18.385127	-0.066838	0.082304	2.422571	0.000000	-0.002386	0.000000	0.000008	0.000000	0.000000	0.000000
25.346075	14.563706	18.336342	-0.089911	0.064051	2.421776	0.000000	-0.002386	0.000000	0.000008	0.000000	0.000000	0.000000
25.679408	14.631338	18.299726	-0.112984	0.045798	2.420981	0.000000	-0.002386	0.000000	0.000008	0.000000	0.000000	0.000000
26.013991	14.714393	18.275580	-0.016770	-0.120785	2.420158	0.000000	-0.022020	0.000000	0.000008	0.000000	0.000000	0.000000
26.311314	14.730375	18.352312	-0.000862	-0.182293	2.413611	0.000000	-0.027938	0.000000	0.000008	0.000000	0.000000	0.000000
26.752274	14.912638	18.314010	-0.414039	0.268823	2.416402	0.000000	0.040610	0.000000	0.000008	0.000000	0.000000	0.000000
27.193234	15.466224	17.881753	-0.846134	0.707708	2.449493	0.000000	0.109620	0.000000	0.000008	0.000000	0.000000	0.000000
27.634194	16.416424	17.075210	-1.316885	1.114393	2.513260	0.000000	0.179878	0.000000	0.000008	0.000001	0.000000	0.000000
28.075154	17.806651	15.931077	-1.847801	1.470374	2.608431	0.000000	0.252186	0.000000	0.000009	0.000001	0.000000	0.000000
28.521114	19.724575	14.484179	-2.468098	1.760367	2.737692	0.000000	0.327809	0.000000	0.000009	0.000001	0.000000	0.000000
29.070174	22.162270	12.871942	-1.945379	1.193324	2.895013	0.000000	0.244406	0.000000	0.000009	0.000001	0.000000	0.000000
29.619234	23.946641	11.832338	-1.285248	0.711278	3.005282	0.000000	0.156668	0.000000	0.000010	0.000000	0.000000	0.000000
30.168294	24.951650	11.291318	-0.534334	0.279895	3.066543	0.000000	0.066151	0.000000	0.000010	0.000000	0.000000	0.000000
30.717354	25.106308	11.210347	0.254323	-0.131552	3.077708	0.000000	-0.025539	0.000000	0.000010	-0.000000	0.000000	0.000000
31.015927	24.997285	11.279449	0.176415	-0.129176	3.072484	0.000000	-0.017498	0.000000	0.000010	-0.000000	0.000000	0.000000
31.349260	24.884258	11.375581	0.162665	-0.159221	3.066651	0.000000	-0.017498	0.000000	0.000010	-0.000000	0.000000	0.000000
31.682593	24.780398	11.491744	0.148915	-0.189267	3.060819	0.000000	-0.017498	0.000000	0.000010	-0.000000	0.000000	0.000000
32.017177	24.685367	11.628486	0.135114	-0.219425	3.054964	0.000000	-0.017498	0.000000	0.000010	-0.000000	0.000000	0.000000
32.314499	24.608669	11.766934	0.058557	-0.215482	3.049762	0.000000	-0.009530	0.000000	0.000010	-0.000000	0.000000	0.000000
32.863559	24.122786	12.242860	0.821139	-0.656436	3.019646	0.000000	-0.100008	0.000000	0.000010	-0.000000	0.000000	0.000000
33.412619	22.826547	13.225687	1.525719	-1.144147	2.940267	0.000000	-0.188712	0.000000	0.000009	-0.000001	0.000000	0.000000
33.961679	20.811510	14.785419	2.122531	-1.713353	2.813033	0.000000	-0.274068	0.000000	0.000009	-0.000001	0.000000	0.000000
34.510739	18.220007	17.033153	2.569417	-2.404597	2.640201	0.000000	-0.354563	0.000000	0.000008	-0.000001	0.000000	0.000000
34.956699	16.205097	19.043620	1.964912	-2.084757	2.498423	0.000000	-0.281632	0.000000	0.000008	-0.000001	0.000000	0.000000
35.397659	14.702671	20.706001	1.455183	-1.670811	2.389616	0.000000	-0.212337	0.000000	0.000007	-0.000001	0.000000	0.000000
35.838619	13.618881	21.968271	1.011938	-1.180844	2.310805	0.000000	-0.145459	0.000000	0.000007	-0.000001	0.000000	0.000000
36.279579	12.904210	22.772996	0.614926	-0.637150	2.261091	0.000000	-0.080239	0.000000	0.000006	-0.000001	0.000000	0.000000
36.721789	12.525316	23.083864	0.276616	-0.121124	2.239880	0.000000	-0.021425	0.000000	0.000006	-0.000000	0.000000	0.000000
37.019112	12.368425	23.159776	0.251062	-0.134194	2.233511	0.000000	-0.021425	0.000000	0.000006	-0.000000	0.000000	0.000000
37.352445	12.210601	23.254122	0.222413	-0.148846	2.226369	0.000000	-0.021425	0.000000	0.000006	-0.000000	0.000000	0.000000
37.685779	12.071875	23.358237	0.193764	-0.163497	2.219228	0.000000	-0.021425	0.000000	0.000006	-0.000000	0.000000	0.000000
38.020362	11.951837	23.472564	0.165007	-0.178204	2.212060	0.000000	-0.021425	0.000000	0.000006	-0.000000	0.000000	0.000000
38.317684	11.861314	23.582419	0.168539	-0.249102	2.205690	0.000000	-0.026833	0.000000	0.000006	-0.000000	0.000000	0.000000
38.758644	11.863947	23.540915	-0.174532	0.342864	2.207785	0.000000	0.036345	0.000000	0.000005	-0.000000	0.000000	0.000000
39.199604	12.171500	22.982257	-0.525578	0.919229	2.237804	0.000000	0.099938	0.000000	0.000005	-0.000000	0.000000	0.000000
39.640564	12.798026	21.931862	-0.900635	1.453770	2.296089	0.000000	0.164668	0.000000	0.000005	-0.000000	0.000000	0.000000
40.081524	13.772149	20.437522	-1.316840	1.922166	2.383303	0.000000	0.231275	0.000000	0.000005	0.000000	0.000000	0.000000
40.527484	15.155940	18.544662	-1.797032	2.304385	2.501913	0.000000	0.300920	0.000000	0.000005	0.000000	0.000000	0.000000
41.076544	16.921985	16.417633	-1.400417	1.592428	2.646606	0.000000	0.225361	0.000000	0.000006	0.000000	0.000000	0.000000
41.625604	18.195271	15.005918	-0.904883	0.993897	2.748652	0.000000	0.145805	0.000000	0.000006	-0.000000	0.000000	0.000000
42.174664	18.885857	14.208964	-0.345433	0.466159	2.806243	0.000000	0.063663	0.000000	0.000005	-0.000000	0.000000	0.000000
42.723724	18.944965	13.970005	0.238417	-0.028376	2.818355	0.000000	-0.019608	0.000000	0.000005	-0.000000	0.000000	0.000000
43.022297	18.837026	13.971536	0.172597	-0.013250	2.814699	0.000000	-0.012245	0.000000	0.000005	-0.000000	0.000000	0.000000
43.502297	18.683929	14.000749	0.146356	-0.047612	2.808822	0.000000	-0.012245	0.000000	0.000005	-0.000000	0.000000	0.000000
43.982297	18.556022	14.062950	0.120115	-0.081973	2.802944	0.000000	-0.012245	0.000000	0.000005	-0.000000	0.000000	0.000000
44.462297	18.453307	14.158138	0.093874	-0.116335	2.797067	0.000000	-0.012245	0.000000	0.000004	-0.000000	0.000000	0.000000
44.942297	18.375783	14.286313	0.067634	-0.150696	2.791190	0.000000	-0.012245	0.000000	0.000004	-0.000000	0.000000	0.000000
45.423547	18.323574	14.447759	-0.049461	-0.113564	2.785315	0.000000	0.001555	0.000000	0.000004	-0.000000	0.000000	0.000000
45.720870	18.357822	14.521487	-0.113691	-0.096468	2.785777	0.000000	0.008834	0.000000	0.000004	-0.000000	0.000000	0.000000
46.269930	18.173553	14.908334	0.447312	-0.612254	2.768056	0.000000	-0.073291	0.000000	0.000004	-0.000001	0.000000	0.000000
46.818990	17.387018	15.882057	0.976719	-1.171649	2.705534	0.000000	-0.154116	0.000000	0.000003	-0.000001	0.000000	0.000000
47.368050	16.053774	17.512010	1.437136	-1.814498	2.599320	0.000000	-0.232208	0.000000	0.000003	-0.000001	0.000000	0.000000
47.917110	14.267995	19.914291	1.796040	-2.586590	2.451299	0.000000	-0.306180	0.000000	0.000003	-0.000001	0.000000	0.000000
48.363070	12.878221	22.050203	1.331366	-2.182743	2.330047	0.000000	-0.237882	0.000000	0.000002	-0.000001	0.000000	0.000000
48.804030	11.884253	23.760403	0.931285	-1.680854	2.239610	0.000000	-0.172690	0.000000	0.000002	-0.000001	0.000000	0.000000
49.244990	11.223099	24.992433	0.573753	-1.102488	2.177460	0.000000	-0.109466	0.000000	0.000002	-0.000001	0.000000	0.000000
49.685950	10.864554	25.690238	0.242433	-0.473959	2.142888	0.000000	-0.047487	0.000000	0.000001	-0.000001	0.000000	0.000000
50.128160	10.792365	25.821786	-0.051461	0.112764	2.135512	0.000000	0.008713	0.000000	0.000001	-0.000001	0.000000	0.000000
50.425482	10.831178	25.758199	-0.079083	0.101103	2.138103	0.000000	0.008713	0.000000	0.000001	-0.000001	0.000000	0.000000
50.758816	10.894223	25.695155	-0.110051	0.088030	2.141007	0.000000	0.008713	0.000000	0.000001	-0.000001	0.000000	0.000000
51.092149	10.977913	25.640826	-0.141019	0.074957	2.143912	0.000000	0.008713	0.000000	0.000000	-0.000001	0.000000	0.000000
51.426732	11.082453	25.595577	-0.082194	-0.145809	2.146806	0.000000	-0.008703	0.000000	0.000000	-0.000001	0.000000	0.000000
51.724055	11.139360	25.685809	-0.081887	-0.220662	2.144218	0.000000	-0.013961	0.000000	0.000000	-0.000001	0.000000	0.000000
52.165015	11.356997	25.594674	-0.413539	0.426550	2.151650	0.000000	0.047701	0.000000	-0.000000	-0.000001	0.000000	0.000000
52.605975	11.874320	24.939161	-0.764084	1.054353	2.186367	0.000000	0.109907	0.000000	-0.000000	-0.000001	0.000000	0.000000
53.046935	12.714961	23.749094	-1.149539	1.634185	2.248764	0.000000	0.173365	0.000000	-0.000001	-0.000001	0.000000	0.000000
53.487895	13.917330	22.078622	-1.587512	2.139662	2.339551	0.000000	0.238797	0.000000	-0.000001	-0.000001	0.000000	0.000000
53.933855	15.556965	19.978770	-2.102249	2.549122	2.461267	0.000000	0.307348	0.000000	-0.000001	-0.000001	0.000000	0.000000
54.482915	17.667906	17.615969	-1.719638	1.779636	2.609840	0.000000	0.233043	0.000000	-0.000002	-0.000001	0.000000	0.000000
55.031975	19.289103	16.024009	-1.215560	1.136909	2.716418	0.000000	0.154605	0.000000	-0.000002	-0.000001	0.000000	0.000000
55.581035	20.306042	15.089495	-0.625621	0.575161	2.779112	0.000000	0.073424	0.000000	-0.000002	-0.000001	0.000000	0.000000
56.130095	20.646891	14.745867	0.008508	0.054381	2.796808	0.000000	-0.009058	0.000000	-0.000003	-0.000000	0.000000	0.000000
56.428668	20.678352	14.696484	-0.059930	0.072488	2.796286	0.000000	-0.001751	0.000000	-0.000003	-0.000000	0.000000	0.000000
56.762001	20.723698	14.655758	-0.076108	0.049688	2.795702	0.000000	-0.001751	0.000000	-0.000003	-0.000000	0.000000	0.000000
57.095334	20.779829	14.630234	-0.092286	0.026887	2.795119	0.000000	-0.001751	0.000000	-0.000003	-0.000000	0.000000	0.000000
57.429918	20.847017	14.619899	-0.108524	0.004001	2.794533	0.000000	-0.001751	0.000000	-0.000003	-0.000000	0.000000	0.000000
57.727240	20.915841	14.623566	-0.177605	0.021874	2.794013	0.000000	0.005550	0.000000	-0.000003	-0.000000	0.000000	0.000000
58.276300	20.754002	14.880409	0.470617	-0.492422	2.774421	0.000000	-0.076812	0.000000	-0.000004	-0.000000	0.000000	0.000000
58.825360	19.894459	15.717842	1.085597	-1.041793	2.709915	0.000000	-0.157811	0.000000	-0.000004	-0.000000	0.000000	0.000000
59.374420	18.397926	17.195513	1.623896	-1.665368	2.601640	0.000000	-0.236011	0.000000	-0.000004	-0.000000	0.000000	0.000000
59.923480	16.370111	19.418674	2.047491	-2.407563	2.451516	0.000000	-0.310025	0.000000	-0.000004	0.000000	0.000000	0.000000
60.369440	14.782892	21.394690	1.524219	-2.004662	2.328547	0.000000	-0.241743	0.000000	-0.000004	-0.000000	0.000000	0.000000
60.810400	13.641162	22.951285	1.074795	-1.511921	2.236396	0.000000	-0.176612	0.000000	-0.000004	-0.000000	0.000000	0.000000
61.251360	12.872720	24.041213	0.674475	-0.950390	2.172495	0.000000	-0.113493	0.000000	-0.000004	-0.000000	0.000000	0.000000
61.692320	12.442457	24.614883	0.304969	-0.345616	2.136115	0.000000	-0.051666	0.000000	-0.000004	-0.000000	0.000000	0.000000
62.134530	12.330766	24.645657	-0.020465	0.214388	2.126849	0.000000	0.004357	0.000000	-0.000004	-0.000000	0.000000	0.000000
62.431853	12.350107	24.521924	-0.044587	0.201769	2.128144	0.000000	0.004357	0.000000	-0.000004	-0.000000	0.000000	0.000000
62.765186	12.388847	24.392126	-0.071631	0.187623	2.129597	0.000000	0.004357	0.000000	-0.000005	-0.000000	0.000000	0.000000
63.098520	12.445615	24.271760	-0.098675	0.173476	2.131049	0.000000	0.004357	0.000000	-0.000005	-0.000000	0.000000	0.000000
63.433103	12.520728	24.160427	-0.125820	0.159276	2.132507	0.000000	0.004357	0.000000	-0.000005	-0.000000	0.000000	0.000000
63.730426	12.602718	24.069465	-0.119036	0.087630	2.133802	0.000000	-0.000876	0.000000	-0.000005	-0.000000	0.000000	0.000000
64.171386	12.868148	23.727094	-0.485185	0.685838	2.146956	0.000000	0.060591	0.000000	-0.000005	-0.000001	0.000000	0.000000
64.612346	13.465009	22.868950	-0.873500	1.252841	2.187341	0.000000	0.122749	0.000000	-0.000006	-0.000001	0.000000	0.000000
65.053306	14.420571	21.534075	-1.301724	1.762840	2.255417	0.000000	0.186305	0.000000	-0.000006	-0.000001	0.000000	0.000000
65.494266	15.778490	19.783208	-1.789419	2.192632	2.351959	0.000000	0.251983	0.000000	-0.000006	-0.000001	0.000000	0.000000
65.940226	17.623971	17.671227	-2.363562	2.523417	2.479640	0.000000	0.320933	0.000000	-0.000007	-0.000001	0.000000	0.000000
66.489286	19.989574	15.308521	-1.919395	1.805168	2.635487	0.000000	0.245915	0.000000	-0.000007	-0.000001	0.000000	0.000000
67.038346	21.789642	13.659729	-1.339652	1.215496	2.748884	0.000000	0.166536	0.000000	-0.000008	-0.000001	0.000000	0.000000
67.587406	22.897026	12.607409	-0.665283	0.712401	2.817821	0.000000	0.084202	0.000000	-0.000008	-0.000000	0.000000	0.000000
68.136466	23.233507	12.076608	0.056079	0.260049	2.841075	0.000000	0.000375	0.000000	-0.000008	-0.000000	0.000000	0.000000
68.435038	23.240109	11.910487	-0.017482	0.264780	2.843403	0.000000	0.007799	0.000000	-0.000008	-0.000000	0.000000	0.000000
68.768372	23.256546	11.743950	-0.031829	0.234831	2.846003	0.000000	0.007799	0.000000	-0.000009	-0.000000	0.000000	0.000000
69.101705	23.282548	11.597378	-0.046176	0.204883	2.848602	0.000000	0.007799	0.000000	-0.000009	-0.000000	0.000000	0.000000
69.436288	23.318266	11.470335	-0.060578	0.174822	2.851212	0.000000	0.007799	0.000000	-0.000009	-0.000000	0.000000	0.000000
69.733611	23.358093	11.374321	-0.134410	0.177830	2.853531	0.000000	0.015255	0.000000	-0.000009	-0.000000	0.000000	0.000000
70.282671	23.104535	11.406777	0.593480	-0.237291	2.838724	0.000000	-0.069112	0.000000	-0.000009	0.000000	0.000000	0.000000
