#ParticleID	Turn	x[m]	xp	y[m]	yp	z[m]	dE[GeV]# s	beta_x	beta_y	alpha_x	alpha_y	D_x	D_y	D_px	D_py	orbit_x	orbit_px	orbit_y	orbit_py
0.300000	11.802027	25.063799	-0.009966	-0.026704	2.618368	0.000000	-0.000085	0.000000	-0.000002	0.000002	0.000000	0.000000
0.601250	11.815722	25.083511	-0.035494	-0.038732	2.618342	0.000000	-0.000085	0.000000	-0.000001	0.000002	0.000000	0.000000
0.898573	11.844320	25.110073	-0.031643	-0.112180	2.618317	0.000000	-0.006506	0.000000	-0.000001	0.000002	0.000000	0.000000
1.339533	12.024218	24.930444	-0.377873	0.517988	2.631741	0.000000	0.067456	0.000000	0.000000	0.000002	0.000000	0.000000
1.780493	12.515893	24.203367	-0.741366	1.124588	2.677919	0.000000	0.142187	0.000000	0.000001	0.000002	0.000000	0.000000
2.221453	13.341807	22.961923	-1.138731	1.680021	2.757375	0.000000	0.218536	0.000000	0.000002	0.000002	0.000000	0.000000
2.662413	14.539696	21.262595	-1.588121	2.159013	2.871014	0.000000	0.297375	0.000000	0.000003	0.000002	0.000000	0.000000
3.108373	16.184998	19.157786	-2.114351	2.540907	3.021991	0.000000	0.380090	0.000000	0.000004	0.000002	0.000000	0.000000
3.657433	18.294876	16.793709	-1.705610	1.790188	3.205411	0.000000	0.287053	0.000000	0.000005	0.000002	0.000000	0.000000
4.206493	19.886692	15.179574	-1.176392	1.166981	3.336272	0.000000	0.188924	0.000000	0.000006	0.000002	0.000000	0.000000
4.755553	20.848008	14.200408	-0.564081	0.626895	3.412255	0.000000	0.087444	0.000000	0.000007	0.000002	0.000000	0.000000
5.304613	21.110920	13.786467	0.088075	0.131462	3.432010	0.000000	-0.015587	0.000000	0.000008	0.000001	0.000000	0.000000
5.603185	21.095490	13.693104	0.018761	0.145216	3.430033	0.000000	-0.006620	0.000000	0.000008	0.000001	0.000000	0.000000
5.936519	21.088251	13.604579	0.002955	0.120360	3.427826	0.000000	-0.006620	0.000000	0.000009	0.000001	0.000000	0.000000
6.269852	21.091550	13.532624	-0.012852	0.095503	3.425619	0.000000	-0.006620	0.000000	0.000009	0.000001	0.000000	0.000000
6.604435	21.105459	13.477064	-0.028718	0.070554	3.423404	0.000000	-0.006620	0.000000	0.000009	0.000001	0.000000	0.000000
6.901758	21.126728	13.441702	-0.098013	0.083501	3.421435	0.000000	0.002319	0.000000	0.000010	0.000001	0.000000	0.000000
7.450818	20.874337	13.610996	0.554971	-0.393655	3.394509	0.000000	-0.100253	0.000000	0.000011	0.000001	0.000000	0.000000
7.999878	19.922272	14.316495	1.168755	-0.898850	3.311671	0.000000	-0.201047	0.000000	0.000011	0.000001	0.000000	0.000000
8.548938	18.337783	15.608449	1.699984	-1.468068	3.174390	0.000000	-0.298274	0.000000	0.000011	0.000000	0.000000	0.000000
9.097998	16.232790	17.578882	2.111134	-2.141853	2.985101	0.000000	-0.390211	0.000000	0.000011	0.000000	0.000000	0.000000
9.543958	14.590567	19.334601	1.584401	-1.778447	2.829387	0.000000	-0.308515	0.000000	0.000012	0.000000	0.000000	0.000000
9.984918	13.396243	20.712910	1.134338	-1.335360	2.710588	0.000000	-0.230816	0.000000	0.000012	0.000001	0.000000	0.000000
10.425878	12.574572	21.672065	0.736100	-0.831515	2.625440	0.000000	-0.155746	0.000000	0.000012	0.000001	0.000000	0.000000
10.866838	12.088014	22.168425	0.371492	-0.289836	2.572972	0.000000	-0.082449	0.000000	0.000013	0.000001	0.000000	0.000000
11.309048	11.914207	22.178879	0.052965	0.210587	2.552567	0.000000	-0.016351	0.000000	0.000013	0.000002	0.000000	0.000000
11.606371	11.890153	22.057818	0.027940	0.196586	2.547705	0.000000	-0.016351	0.000000	0.000014	0.000002	0.000000	0.000000
12.086371	11.882723	21.879944	-0.012461	0.173984	2.539855	0.000000	-0.016351	0.000000	0.000014	0.000002	0.000000	0.000000
12.566371	11.914078	21.723768	-0.052862	0.151382	2.532006	0.000000	-0.016351	0.000000	0.000015	0.000002	0.000000	0.000000
13.046371	11.984219	21.589289	-0.093263	0.128780	2.524157	0.000000	-0.016351	0.000000	0.000016	0.000002	0.000000	0.000000
13.526371	12.093144	21.476509	-0.133664	0.106178	2.516308	0.000000	-0.016351	0.000000	0.000017	0.000002	0.000000	0.000000
14.007621	12.241290	21.385218	-0.174171	0.083518	2.508438	0.000000	-0.016351	0.000000	0.000017	0.000002	0.000000	0.000000
14.304943	12.352300	21.339717	-0.168910	0.017195	2.503576	0.000000	-0.022490	0.000000	0.000018	0.000001	0.000000	0.000000
14.745903	12.659735	21.091012	-0.530929	0.544666	2.509286	0.000000	0.048415	0.000000	0.000019	0.000002	0.000000	0.000000
15.186863	13.295891	20.386312	-0.917204	1.047356	2.546353	0.000000	0.119871	0.000000	0.000020	0.000002	0.000000	0.000000
15.627823	14.289832	19.257681	-1.345385	1.502391	2.615201	0.000000	0.192692	0.000000	0.000021	0.000003	0.000000	0.000000
16.068783	15.686970	17.756470	-1.835032	1.889068	2.716612	0.000000	0.267708	0.000000	0.000022	0.000004	0.000000	0.000000
16.514743	17.574798	15.929485	-2.413275	2.190536	2.853436	0.000000	0.346235	0.000000	0.000024	0.000004	0.000000	0.000000
17.063803	19.999581	13.889585	-1.976823	1.546653	3.019816	0.000000	0.258935	0.000000	0.000026	0.000003	0.000000	0.000000
17.612863	21.865109	12.492464	-1.400738	1.012934	3.136931	0.000000	0.167043	0.000000	0.000028	0.000002	0.000000	0.000000
18.161923	23.039611	11.638610	-0.725711	0.551364	3.202702	0.000000	0.072187	0.000000	0.000029	0.000002	0.000000	0.000000
18.710983	23.440126	11.267205	0.000576	0.129067	3.215964	0.000000	-0.023949	0.000000	0.000029	0.000001	0.000000	0.000000
19.009556	23.480162	11.180668	-0.073438	0.131334	3.211322	0.000000	-0.015548	0.000000	0.000029	0.000001	0.000000	0.000000
19.342889	23.533878	11.103221	-0.087711	0.101007	3.206139	0.000000	-0.015548	0.000000	0.000030	0.000001	0.000000	0.000000
19.676223	23.597110	11.045993	-0.101984	0.070679	3.200956	0.000000	-0.015548	0.000000	0.000030	0.000001	0.000000	0.000000
20.010806	23.670441	11.008746	-0.233587	0.094782	3.195773	0.000000	0.000286	0.000000	0.000030	0.000001	0.000000	0.000000
20.308129	23.813281	10.960486	-0.309037	0.096162	3.195858	0.000000	0.008634	0.000000	0.000030	0.000001	0.000000	0.000000
20.857189	23.741908	11.076735	0.438261	-0.309135	3.174390	0.000000	-0.086718	0.000000	0.000031	-0.000000	0.000000	0.000000
21.406249	22.862121	11.647456	1.154603	-0.736451	3.100914	0.000000	-0.180531	0.000000	0.000030	-0.000001	0.000000	0.000000
21.955309	21.236067	12.713300	1.789389	-1.216223	2.976734	0.000000	-0.271142	0.000000	0.000029	-0.000002	0.000000	0.000000
22.504369	18.978600	14.350185	2.297781	-1.782623	2.804052	0.000000	-0.356944	0.000000	0.000028	-0.000003	0.000000	0.000000
22.950329	17.199391	15.819939	1.705914	-1.499179	2.662158	0.000000	-0.279764	0.000000	0.000027	-0.000002	0.000000	0.000000
23.391289	15.924299	16.991865	1.196682	-1.148375	2.555109	0.000000	-0.206225	0.000000	0.000026	-0.000002	0.000000	0.000000
23.832249	15.072594	17.830099	0.742123	-0.745321	2.479941	0.000000	-0.135034	0.000000	0.000026	-0.000001	0.000000	0.000000
24.273209	14.605365	18.296504	0.321469	-0.308356	2.435795	0.000000	-0.065381	0.000000	0.000025	-0.000000	0.000000	0.000000
24.715418	14.501387	18.369613	-0.049031	0.097534	2.422168	0.000000	-0.002412	0.000000	0.000025	0.000000	0.000000	0.000000
25.012741	14.536653	18.316473	-0.069583	0.081194	2.421450	0.000000	-0.002412	0.000000	0.000025	0.000000	0.000000	0.000000
25.346075	14.590723	18.268450	-0.092624	0.062876	2.420646	0.000000	-0.002412	0.000000	0.000026	0.000000	0.000000	0.000000
25.679408	14.660153	18.232639	-0.115666	0.044557	2.419842	0.000000	-0.002412	0.000000	0.000026	0.000000	0.000000	0.000000
26.013991	14.744992	18.209345	-0.019173	-0.121553	2.419011	0.000000	-0.022037	0.000000	0.000026	0.000000	0.000000	0.000000
26.311314	14.762390	18.286552	-0.003152	-0.182956	2.412459	0.000000	-0.027951	0.000000	0.000026	0.000000	0.000000	0.000000
26.752274	14.947026	18.249620	-0.417149	0.266392	2.415237	0.000000	0.040567	0.000000	0.000026	0.000001	0.000000	0.000000
27.193234	15.503767	17.820250	-0.850205	0.703618	2.448302	0.000000	0.109547	0.000000	0.000026	0.000001	0.000000	0.000000
27.634194	16.458049	17.017980	-1.322105	1.108831	2.512030	0.000000	0.179774	0.000000	0.000027	0.000002	0.000000	0.000000
28.075154	17.853472	15.879311	-1.854408	1.463592	2.607147	0.000000	0.252049	0.000000	0.000028	0.000003	0.000000	0.000000
28.521114	19.778025	14.438895	-2.476407	1.752673	2.736338	0.000000	0.327638	0.000000	0.000030	0.000004	0.000000	0.000000
29.070174	22.224125	12.834102	-1.952285	1.187379	2.893577	0.000000	0.244280	0.000000	0.000031	0.000003	0.000000	0.000000
29.619234	24.015082	11.800263	-1.290264	0.706660	3.003789	0.000000	0.156590	0.000000	0.000033	0.000002	0.000000	0.000000
30.168294	25.024393	11.263739	-0.537104	0.276275	3.065020	0.000000	0.066122	0.000000	0.000033	0.000000	0.000000	0.000000
30.717354	25.180763	11.186316	0.253994	-0.134432	3.076183	0.000000	-0.025519	0.000000	0.000033	-0.000001	0.000000	0.000000
31.015927	25.072034	11.257200	0.175942	-0.132198	3.070963	0.000000	-0.017484	0.000000	0.000033	-0.000001	0.000000	0.000000
31.349260	24.959308	11.355375	0.162236	-0.162327	3.065135	0.000000	-0.017484	0.000000	0.000033	-0.000001	0.000000	0.000000
31.682593	24.855720	11.473636	0.148529	-0.192455	3.059307	0.000000	-0.017484	0.000000	0.000033	-0.000001	0.000000	0.000000
32.017177	24.760932	11.612538	0.134771	-0.222696	3.053458	0.000000	-0.017484	0.000000	0.000032	-0.000001	0.000000	0.000000
32.314499	24.684426	11.752953	0.058067	-0.218869	3.048259	0.000000	-0.009521	0.000000	0.000032	-0.000000	0.000000	0.000000
32.863559	24.197699	12.232464	0.823158	-0.659616	3.018162	0.000000	-0.099951	0.000000	0.000032	-0.000001	0.000000	0.000000
33.412619	22.897921	13.218774	1.530105	-1.147347	2.938829	0.000000	-0.188607	0.000000	0.000031	-0.000002	0.000000	0.000000
33.961679	20.876903	14.782135	2.128973	-1.716800	2.811666	0.000000	-0.273918	0.000000	0.000029	-0.000003	0.000000	0.000000
34.510739	18.277398	17.033901	2.577460	-2.408537	2.638929	0.000000	-0.354371	0.000000	0.000027	-0.000004	0.000000	0.000000
34.956699	16.256114	19.048065	1.971210	-2.089071	2.497231	0.000000	-0.281471	0.000000	0.000025	-0.000004	0.000000	0.000000
35.397659	14.748787	20.714342	1.460040	-1.675298	2.388489	0.000000	-0.212206	0.000000	0.000024	-0.000003	0.000000	0.000000
35.838619	13.661265	21.980570	1.015575	-1.185299	2.309730	0.000000	-0.145357	0.000000	0.000022	-0.000002	0.000000	0.000000
36.279579	12.943862	22.789135	0.617508	-0.641370	2.260056	0.000000	-0.080163	0.000000	0.000022	-0.000002	0.000000	0.000000
36.721789	12.563106	23.103561	0.278351	-0.124959	2.238873	0.000000	-0.021372	0.000000	0.000021	-0.000001	0.000000	0.000000
37.019112	12.405168	23.181753	0.252851	-0.138029	2.232519	0.000000	-0.021372	0.000000	0.000020	-0.000001	0.000000	0.000000
37.352445	12.246130	23.278657	0.224262	-0.152682	2.225396	0.000000	-0.021372	0.000000	0.000020	-0.000001	0.000000	0.000000
37.685779	12.106151	23.385329	0.195674	-0.167335	2.218272	0.000000	-0.021372	0.000000	0.000019	-0.000001	0.000000	0.000000
38.020362	11.984814	23.502226	0.166978	-0.182043	2.211122	0.000000	-0.021372	0.000000	0.000019	-0.000001	0.000000	0.000000
38.317684	11.893103	23.614363	0.170638	-0.253013	2.204767	0.000000	-0.026778	0.000000	0.000019	-0.000001	0.000000	0.000000
38.758644	11.894199	23.575924	-0.173135	0.339853	2.206882	0.000000	0.036377	0.000000	0.000018	-0.000001	0.000000	0.000000
39.199604	12.200806	23.019472	-0.524819	0.917255	2.236910	0.000000	0.099946	0.000000	0.000018	-0.000000	0.000000	0.000000
39.640564	12.826931	21.970325	-0.900480	1.452924	2.295194	0.000000	0.164654	0.000000	0.000018	-0.000000	0.000000	0.000000
40.081524	13.801179	20.476219	-1.317282	1.922485	2.382397	0.000000	0.231237	0.000000	0.000018	0.000000	0.000000	0.000000
40.527484	15.185640	18.582553	-1.798094	2.305862	2.500984	0.000000	0.300859	0.000000	0.000018	0.000001	0.000000	0.000000
41.076544	16.952226	16.454457	-1.400332	1.592904	2.645651	0.000000	0.225330	0.000000	0.000018	0.000000	0.000000	0.000000
41.625604	18.224788	15.042751	-0.903657	0.993405	2.747690	0.000000	0.145805	0.000000	0.000018	-0.000000	0.000000	0.000000
42.174664	18.913438	14.246881	-0.343153	0.464664	2.805289	0.000000	0.063694	0.000000	0.000018	-0.000001	0.000000	0.000000
42.723724	18.969534	14.010160	0.241590	-0.030980	2.817427	0.000000	-0.019547	0.000000	0.000017	-0.000001	0.000000	0.000000
43.022297	18.859734	14.013167	0.175714	-0.015691	2.813789	0.000000	-0.012186	0.000000	0.000017	-0.000001	0.000000	0.000000
43.502297	18.703643	14.044676	0.149477	-0.049953	2.807940	0.000000	-0.012186	0.000000	0.000016	-0.000001	0.000000	0.000000
43.982297	18.572739	14.109076	0.123240	-0.084215	2.802091	0.000000	-0.012186	0.000000	0.000016	-0.000001	0.000000	0.000000
44.462297	18.467022	14.206368	0.097003	-0.118477	2.796242	0.000000	-0.012186	0.000000	0.000015	-0.000001	0.000000	0.000000
44.942297	18.386493	14.336551	0.070766	-0.152739	2.790393	0.000000	-0.012186	0.000000	0.000014	-0.000001	0.000000	0.000000
45.423547	18.331266	14.499914	-0.046362	-0.115248	2.784547	0.000000	0.001610	0.000000	0.000014	-0.000001	0.000000	0.000000
45.720870	18.363668	14.574624	-0.110592	-0.097949	2.785026	0.000000	0.008886	0.000000	0.000013	-0.000001	0.000000	0.000000
46.269930	18.175916	14.963993	0.450519	-0.615392	2.767340	0.000000	-0.073216	0.000000	0.000012	-0.000002	0.000000	0.000000
46.818990	17.385905	15.942166	0.979807	-1.176667	2.704867	0.000000	-0.154018	0.000000	0.000011	-0.000002	0.000000	0.000000
47.368050	16.049436	17.578818	1.439886	-1.821753	2.598714	0.000000	-0.232089	0.000000	0.000010	-0.000002	0.000000	0.000000
47.917110	14.260911	19.990524	1.798259	-2.596599	2.450764	0.000000	-0.306043	0.000000	0.000009	-0.000003	0.000000	0.000000
48.363070	12.869201	22.134636	1.333504	-2.191047	2.329571	0.000000	-0.237758	0.000000	0.000007	-0.000003	0.000000	0.000000
48.804030	11.873346	23.851268	0.933443	-1.687080	2.239187	0.000000	-0.172578	0.000000	0.000006	-0.000002	0.000000	0.000000
49.244990	11.210244	25.087766	0.576029	-1.106353	2.177085	0.000000	-0.109363	0.000000	0.000005	-0.000002	0.000000	0.000000
49.685950	10.849601	25.787871	0.244932	-0.475288	2.142557	0.000000	-0.047394	0.000000	0.000004	-0.000002	0.000000	0.000000
50.128160	10.775062	25.919444	-0.048669	0.113793	2.135220	0.000000	0.008799	0.000000	0.000003	-0.000002	0.000000	0.000000
50.425482	10.812226	25.855232	-0.076328	0.102174	2.137837	0.000000	0.008799	0.000000	0.000003	-0.000002	0.000000	0.000000
50.758816	10.873448	25.791458	-0.107337	0.089147	2.140771	0.000000	0.008799	0.000000	0.000002	-0.000002	0.000000	0.000000
51.092149	10.955342	25.736369	-0.138346	0.076120	2.143704	0.000000	0.008799	0.000000	0.000001	-0.000002	0.000000	0.000000
51.426732	11.058109	25.690328	-0.079761	-0.145368	2.146627	0.000000	-0.008616	0.000000	0.000001	-0.000002	0.000000	0.000000
51.724055	11.113583	25.780284	-0.079565	-0.220407	2.144066	0.000000	-0.013874	0.000000	0.000000	-0.000002	0.000000	0.000000
52.165015	11.328897	25.687822	-0.410572	0.429293	2.151537	0.000000	0.047786	0.000000	-0.000001	-0.000002	0.000000	0.000000
52.605975	11.843269	25.028833	-0.760337	1.059462	2.186291	0.000000	0.109989	0.000000	-0.000002	-0.000002	0.000000	0.000000
53.046935	12.680200	23.833300	-1.144839	1.641425	2.248724	0.000000	0.173445	0.000000	-0.000002	-0.000002	0.000000	0.000000
53.487895	13.877927	22.155620	-1.581646	2.148705	2.339547	0.000000	0.238877	0.000000	-0.000003	-0.000002	0.000000	0.000000
53.933855	15.511706	20.047044	-2.094937	2.559560	2.461300	0.000000	0.307428	0.000000	-0.000004	-0.000002	0.000000	0.000000
54.482915	17.615222	17.674280	-1.713509	1.787451	2.609917	0.000000	0.233122	0.000000	-0.000006	-0.000002	0.000000	0.000000
55.031975	19.230540	16.074916	-1.211047	1.142657	2.716538	0.000000	0.154680	0.000000	-0.000007	-0.000002	0.000000	0.000000
55.581035	20.243561	15.135032	-0.623043	0.579253	2.779272	0.000000	0.073495	0.000000	-0.000008	-0.000002	0.000000	0.000000
56.130095	20.582732	14.787683	0.008969	0.057107	2.797007	0.000000	-0.008993	0.000000	-0.000009	-0.000001	0.000000	0.000000
56.428668	20.613832	14.736592	-0.059349	0.075372	2.796504	0.000000	-0.001685	0.000000	-0.000009	-0.000001	0.000000	0.000000
56.762001	20.658807	14.693927	-0.075576	0.052624	2.795943	0.000000	-0.001685	0.000000	-0.000009	-0.000001	0.000000	0.000000
57.095334	20.714600	14.666427	-0.091803	0.029876	2.795382	0.000000	-0.001685	0.000000	-0.000010	-0.000001	0.000000	0.000000
57.429918	20.781481	14.654075	-0.108091	0.007043	2.794819	0.000000	-0.001685	0.000000	-0.000010	-0.000001	0.000000	0.000000
57.727240	20.850061	14.655919	-0.177048	0.025049	2.794318	0.000000	0.005617	0.000000	-0.000011	-0.000001	0.000000	0.000000
58.276300	20.688822	14.909769	0.468972	-0.490112	2.774761	0.000000	-0.076755	0.000000	-0.000012	-0.000001	0.000000	0.000000
58.825360	19.832248	15.745061	1.081866	-1.040182	2.710283	0.000000	-0.157766	0.000000	-0.000012	-0.000001	0.000000	0.000000
59.374420	18.340844	17.221292	1.618342	-1.664341	2.602030	0.000000	-0.235978	0.000000	-0.000012	-0.000000	0.000000	0.000000
59.923480	16.319954	19.443611	2.040507	-2.407048	2.451920	0.000000	-0.310004	0.000000	-0.000012	0.000000	0.000000	0.000000
60.369440	14.738276	21.418769	1.518734	-2.003259	2.328963	0.000000	-0.241712	0.000000	-0.000012	-0.000000	0.000000	0.000000
60.810400	13.600823	22.973761	1.070545	-1.509702	2.236828	0.000000	-0.176571	0.000000	-0.000013	-0.000001	0.000000	0.000000
61.251360	12.835656	24.061408	0.671266	-0.947454	2.172948	0.000000	-0.113440	0.000000	-0.000013	-0.000001	0.000000	0.000000
61.692320	12.407818	24.632220	0.302656	-0.342098	2.136595	0.000000	-0.051601	0.000000	-0.000013	-0.000001	0.000000	0.000000
62.134530	12.297817	24.659683	-0.022067	0.218288	2.127360	0.000000	0.004433	0.000000	-0.000014	-0.000002	0.000000	0.000000
62.431853	12.318131	24.533634	-0.046255	0.205657	2.128679	0.000000	0.004433	0.000000	-0.000015	-0.000002	0.000000	0.000000
62.765186	12.358007	24.401250	-0.073374	0.191495	2.130157	0.000000	0.004433	0.000000	-0.000015	-0.000002	0.000000	0.000000
63.098520	12.415963	24.278307	-0.100492	0.177334	2.131635	0.000000	0.004433	0.000000	-0.000016	-0.000002	0.000000	0.000000
63.433103	12.492316	24.164397	-0.127712	0.163119	2.133118	0.000000	0.004433	0.000000	-0.000016	-0.000002	0.000000	0.000000
63.730426	12.575451	24.071155	-0.121057	0.091449	2.134437	0.000000	-0.000802	0.000000	-0.000017	-0.000002	0.000000	0.000000
64.171386	12.842407	23.725427	-0.486638	0.689602	2.147627	0.000000	0.060682	0.000000	-0.000017	-0.000002	0.000000	0.000000
64.612346	13.440324	22.864050	-0.874452	1.256379	2.188057	0.000000	0.122858	0.000000	-0.000018	-0.000002	0.000000	0.000000
65.053306	14.396520	21.526215	-1.302217	1.765992	2.256185	0.000000	0.186433	0.000000	-0.000019	-0.000003	0.000000	0.000000
65.494266	15.754680	19.772793	-1.789476	2.195253	2.352789	0.000000	0.252132	0.000000	-0.000021	-0.000003	0.000000	0.000000
65.940226	17.600017	17.658760	-2.363183	2.525382	2.480542	0.000000	0.321104	0.000000	-0.000023	-0.000004	0.000000	0.000000
66.489286	19.965752	15.293909	-1.920017	1.807134	2.636476	0.000000	0.246055	0.000000	-0.000025	-0.000003	0.000000	0.000000
67.038346	21.767034	13.642893	-1.341230	1.217603	2.749942	0.000000	0.166643	0.000000	-0.000026	-0.000002	0.000000	0.000000
67.587406	22.876628	12.588114	-0.667706	0.714800	2.818929	0.000000	0.084274	0.000000	-0.000027	-0.000002	0.000000	0.000000
68.136466	23.216158	12.054443	0.052981	0.262910	2.842212	0.000000	0.000411	0.000000	-0.000028	-0.000001	0.000000	0.000000
68.435038	23.224592	11.886671	-0.020554	0.267498	2.844553	0.000000	0.007839	0.000000	-0.000028	-0.000001	0.000000	0.000000
68.768372	23.243080	11.718356	-0.034912	0.237449	2.847166	0.000000	0.007839	0.000000	-0.000028	-0.000001	0.000000	0.000000
69.101705	23.271142	11.570073	-0.049271	0.207400	2.849779	0.000000	0.007839	0.000000	-0.000028	-0.000001	0.000000	0.000000
69.436288	23.308934	11.441380	-0.063684	0.177238	2.852402	0.000000	0.007839	0.000000	-0.000029	-0.000001	0.000000	0.000000
69.733611	23.350611	11.343955	-0.137517	0.180081	2.854733	0.000000	0.015299	0.000000	-0.000029	-0.000001	0.000000	0.000000
70.282671	23.100572	11.373464	0.590216	-0.234142	2.839939	0.000000	-0.069107	0.000000	-0.000029	0.000000	0.000000	0.000000
