#ParticleID	Turn	x[m]	xp	y[m]	yp	z[m]	dE[GeV]# s	beta_x	beta_y	alpha_x	alpha_y	D_x	D_y	D_px	D_py	orbit_x	orbit_px	orbit_y	orbit_py
0.300000	11.831565	24.949055	-0.013317	-0.027762	2.618278	0.000000	-0.000051	0.000000	0.000000	0.000000	0.000000	0.000000
0.601250	11.847261	24.969422	-0.038783	-0.039846	2.618262	0.000000	-0.000051	0.000000	0.000001	0.000000	0.000000	0.000000
0.898573	11.877796	24.996663	-0.034790	-0.113072	2.618247	0.000000	-0.006472	0.000000	0.000001	0.000000	0.000000	0.000000
1.339533	12.060829	24.819141	-0.381863	0.514119	2.631687	0.000000	0.067488	0.000000	0.000001	0.000000	0.000000	0.000000
1.780493	12.556460	24.096729	-0.746383	1.117918	2.677879	0.000000	0.142217	0.000000	0.000001	0.000000	0.000000	0.000000
2.221453	13.387334	22.862296	-1.145004	1.670852	2.757349	0.000000	0.218566	0.000000	0.000001	0.000000	0.000000	0.000000
2.662413	14.591411	21.172007	-1.595936	2.147764	2.871002	0.000000	0.297404	0.000000	0.000001	0.000000	0.000000	0.000000
3.108373	16.244510	19.077977	-2.124082	2.528084	3.021993	0.000000	0.380119	0.000000	0.000001	0.000000	0.000000	0.000000
3.657433	18.364285	16.726188	-1.713800	1.780501	3.205430	0.000000	0.287082	0.000000	0.000001	0.000000	0.000000	0.000000
4.206493	19.963977	15.121293	-1.182463	1.159739	3.336308	0.000000	0.188952	0.000000	0.000001	0.000000	0.000000	0.000000
4.755553	20.930591	14.148980	-0.567604	0.621582	3.412306	0.000000	0.087471	0.000000	0.000001	0.000000	0.000000	0.000000
5.304613	21.195850	13.739993	0.087349	0.127700	3.432076	0.000000	-0.015562	0.000000	0.000001	0.000000	0.000000	0.000000
5.603185	21.180970	13.648962	0.017868	0.141288	3.430107	0.000000	-0.006595	0.000000	0.000001	0.000000	0.000000	0.000000
5.936519	21.174306	13.563074	0.002125	0.116378	3.427909	0.000000	-0.006595	0.000000	0.000001	0.000000	0.000000	0.000000
6.269852	21.178137	13.493791	-0.013617	0.091469	3.425711	0.000000	-0.006595	0.000000	0.000001	0.000000	0.000000	0.000000
6.604435	21.192536	13.440949	-0.029419	0.066466	3.423504	0.000000	-0.006595	0.000000	0.000001	0.000000	0.000000	0.000000
6.901758	21.214205	13.408031	-0.098889	0.079280	3.421544	0.000000	0.002345	0.000000	0.000001	0.000000	0.000000	0.000000
7.450818	20.961162	13.581456	0.557025	-0.397003	3.394631	0.000000	-0.100230	0.000000	0.000001	0.000000	0.000000	0.000000
7.999878	20.005290	14.290264	1.173594	-0.901565	3.311805	0.000000	-0.201028	0.000000	0.000001	-0.000000	0.000000	0.000000
8.548938	18.414106	15.584941	1.707266	-1.470342	3.174533	0.000000	-0.298260	0.000000	0.000001	-0.000000	0.000000	0.000000
9.097998	16.300003	17.557705	2.120345	-2.143849	2.985251	0.000000	-0.390202	0.000000	0.000001	-0.000000	0.000000	0.000000
9.543958	14.650481	19.315607	1.591616	-1.781330	2.829542	0.000000	-0.308502	0.000000	0.000001	-0.000000	0.000000	0.000000
9.984918	13.450543	20.696799	1.139903	-1.338990	2.710750	0.000000	-0.230799	0.000000	0.000001	-0.000000	0.000000	0.000000
10.425878	12.624596	21.659426	0.740268	-0.835728	2.625610	0.000000	-0.155724	0.000000	0.000001	-0.000000	0.000000	0.000000
10.866838	12.134906	22.159689	0.374454	-0.294440	2.573154	0.000000	-0.082423	0.000000	0.000001	0.000000	0.000000	0.000000
11.309048	11.958962	22.174311	0.054970	0.205807	2.552762	0.000000	-0.016321	0.000000	0.000001	0.000000	0.000000	0.000000
11.606371	11.933689	22.056084	0.030033	0.191831	2.547909	0.000000	-0.016321	0.000000	0.000001	0.000000	0.000000	0.000000
12.086371	11.924182	21.882758	-0.010226	0.169267	2.540075	0.000000	-0.016321	0.000000	0.000001	0.000000	0.000000	0.000000
12.566371	11.953323	21.731092	-0.050484	0.146703	2.532240	0.000000	-0.016321	0.000000	0.000001	0.000000	0.000000	0.000000
13.046371	12.021112	21.601087	-0.090743	0.124140	2.524406	0.000000	-0.016321	0.000000	0.000001	0.000000	0.000000	0.000000
13.526371	12.127549	21.492743	-0.131001	0.101576	2.516572	0.000000	-0.016321	0.000000	0.000001	0.000000	0.000000	0.000000
14.007621	12.273063	21.405863	-0.171365	0.078954	2.508717	0.000000	-0.016321	0.000000	0.000001	0.000000	0.000000	0.000000
14.304943	12.382378	21.363069	-0.165937	0.012590	2.503864	0.000000	-0.022462	0.000000	0.000001	0.000000	0.000000	0.000000
14.745903	12.687459	21.118118	-0.528544	0.540791	2.509589	0.000000	0.048451	0.000000	0.000002	0.000000	0.000000	0.000000
15.186863	13.321731	20.416448	-0.915300	1.044386	2.546675	0.000000	0.119915	0.000000	0.000002	0.000000	0.000000	0.000000
15.627823	14.314170	19.289985	-1.343872	1.500463	2.615544	0.000000	0.192744	0.000000	0.000002	0.000000	0.000000	0.000000
16.068783	15.710119	17.789981	-1.833842	1.888270	2.716981	0.000000	0.267769	0.000000	0.000002	0.000000	0.000000	0.000000
16.514743	17.597010	15.963186	-2.412354	2.190911	2.853836	0.000000	0.346306	0.000000	0.000002	0.000000	0.000000	0.000000
17.063803	20.020176	13.923267	-1.974821	1.546312	3.020254	0.000000	0.258993	0.000000	0.000002	0.000000	0.000000	0.000000
17.612863	21.882973	12.526924	-1.397798	1.011853	3.137398	0.000000	0.167086	0.000000	0.000002	0.000000	0.000000	0.000000
18.161923	23.053823	11.674697	-0.722040	0.549465	3.203190	0.000000	0.072215	0.000000	0.000002	0.000000	0.000000	0.000000
18.710983	23.450021	11.305885	0.004718	0.126215	3.216463	0.000000	-0.023937	0.000000	0.000002	0.000000	0.000000	0.000000
19.009556	23.487604	11.220952	-0.069324	0.128706	3.211825	0.000000	-0.015533	0.000000	0.000002	0.000000	0.000000	0.000000
19.342889	23.538574	11.145215	-0.083584	0.098507	3.206647	0.000000	-0.015533	0.000000	0.000002	0.000000	0.000000	0.000000
19.676223	23.599050	11.089609	-0.097845	0.068309	3.201470	0.000000	-0.015533	0.000000	0.000002	0.000000	0.000000	0.000000
20.010806	23.669606	11.053904	-0.229430	0.092765	3.196292	0.000000	0.000303	0.000000	0.000002	0.000000	0.000000	0.000000
20.308129	23.809968	11.006808	-0.304863	0.094394	3.196383	0.000000	0.008655	0.000000	0.000002	0.000000	0.000000	0.000000
20.857189	23.734092	11.125718	0.442236	-0.312244	3.174921	0.000000	-0.086714	0.000000	0.000002	-0.000000	0.000000	0.000000
21.406249	22.850180	11.700686	1.158098	-0.741123	3.101443	0.000000	-0.180544	0.000000	0.000002	-0.000000	0.000000	0.000000
21.955309	21.220666	12.772665	1.792158	-1.222791	2.977250	0.000000	-0.271172	0.000000	0.000002	-0.000000	0.000000	0.000000
22.504369	18.960652	14.418010	2.299628	-1.791555	2.804546	0.000000	-0.356991	0.000000	0.000002	-0.000000	0.000000	0.000000
22.950329	17.179727	15.895053	1.707932	-1.506525	2.662633	0.000000	-0.279798	0.000000	0.000002	-0.000000	0.000000	0.000000
23.391289	15.902747	17.072634	1.198964	-1.153807	2.555572	0.000000	-0.206247	0.000000	0.000002	-0.000000	0.000000	0.000000
23.832249	15.048876	17.914720	0.744773	-0.748592	2.480395	0.000000	-0.135044	0.000000	0.000002	-0.000000	0.000000	0.000000
24.273209	14.579103	18.382998	0.324609	-0.309317	2.436248	0.000000	-0.065380	0.000000	0.000002	-0.000000	0.000000	0.000000
24.715418	14.472080	18.455913	-0.045323	0.098705	2.422623	0.000000	-0.002401	0.000000	0.000002	-0.000000	0.000000	0.000000
25.012741	14.505152	18.402055	-0.065909	0.082438	2.421909	0.000000	-0.002401	0.000000	0.000002	-0.000000	0.000000	0.000000
25.346075	14.556785	18.353176	-0.088990	0.064201	2.421109	0.000000	-0.002401	0.000000	0.000002	-0.000000	0.000000	0.000000
25.679408	14.623804	18.316454	-0.112070	0.045964	2.420309	0.000000	-0.002401	0.000000	0.000002	-0.000000	0.000000	0.000000
26.013991	14.706251	18.292192	-0.015930	-0.120737	2.419481	0.000000	-0.022030	0.000000	0.000002	-0.000000	0.000000	0.000000
26.311314	14.721736	18.368891	-0.000051	-0.182273	2.412931	0.000000	-0.027947	0.000000	0.000002	-0.000000	0.000000	0.000000
26.752274	14.903188	18.330373	-0.413003	0.269291	2.415714	0.000000	0.040583	0.000000	0.000002	0.000000	0.000000	0.000000
27.193234	15.455743	17.897514	-0.844824	0.708603	2.448790	0.000000	0.109576	0.000000	0.000002	0.000000	0.000000	0.000000
27.634194	16.404646	17.090008	-1.315243	1.115674	2.512534	0.000000	0.179816	0.000000	0.000002	0.000000	0.000000	0.000000
28.075154	17.793250	15.944597	-1.845751	1.471982	2.607673	0.000000	0.252104	0.000000	0.000002	0.000000	0.000000	0.000000
28.521114	19.709129	14.496144	-2.465542	1.762231	2.736894	0.000000	0.327707	0.000000	0.000002	0.000000	0.000000	0.000000
29.070174	22.144214	12.882116	-1.943213	1.194741	2.894166	0.000000	0.244331	0.000000	0.000002	0.000000	0.000000	0.000000
29.619234	23.926493	11.841153	-1.283625	0.712351	3.004402	0.000000	0.156621	0.000000	0.000002	0.000000	0.000000	0.000000
30.168294	24.930072	11.299108	-0.533369	0.280699	3.065645	0.000000	0.066133	0.000000	0.000002	-0.000000	0.000000	0.000000
30.717354	25.084065	11.217374	0.254563	-0.130958	3.076808	0.000000	-0.025528	0.000000	0.000002	-0.000000	0.000000	0.000000
31.015927	24.974871	11.286103	0.176695	-0.128542	3.071586	0.000000	-0.017489	0.000000	0.000002	-0.000000	0.000000	0.000000
31.349260	24.861662	11.381805	0.162932	-0.158565	3.065757	0.000000	-0.017489	0.000000	0.000002	-0.000000	0.000000	0.000000
31.682593	24.757629	11.497523	0.149168	-0.188588	3.059927	0.000000	-0.017489	0.000000	0.000002	-0.000000	0.000000	0.000000
32.017177	24.662433	11.633802	0.135353	-0.218723	3.054075	0.000000	-0.017489	0.000000	0.000002	-0.000000	0.000000	0.000000
32.314499	24.585596	11.771827	0.058840	-0.214745	3.048876	0.000000	-0.009523	0.000000	0.000002	-0.000000	0.000000	0.000000
32.863559	24.099826	12.247002	0.820653	-0.655797	3.018771	0.000000	-0.099972	0.000000	0.000002	-0.000000	0.000000	0.000000
33.412619	22.804529	13.229160	1.524498	-1.143560	2.939420	0.000000	-0.188648	0.000000	0.000002	-0.000000	0.000000	0.000000
33.961679	20.791200	14.788258	2.120661	-1.712777	2.812228	0.000000	-0.273978	0.000000	0.000002	-0.000000	0.000000	0.000000
34.510739	18.202049	17.035346	2.567031	-2.403990	2.639452	0.000000	-0.354448	0.000000	0.000001	-0.000000	0.000000	0.000000
34.956699	16.189023	19.045207	1.963057	-2.084010	2.497720	0.000000	-0.281535	0.000000	0.000001	-0.000000	0.000000	0.000000
35.397659	14.688032	20.706879	1.453772	-1.669958	2.388952	0.000000	-0.212257	0.000000	0.000001	-0.000000	0.000000	0.000000
35.838619	13.605315	21.968364	1.010906	-1.179924	2.310172	0.000000	-0.145397	0.000000	0.000001	-0.000000	0.000000	0.000000
36.279579	12.891405	22.772263	0.614225	-0.636205	2.260481	0.000000	-0.080192	0.000000	0.000001	-0.000000	0.000000	0.000000
36.721789	12.512996	23.082301	0.276186	-0.120197	2.239288	0.000000	-0.021393	0.000000	0.000001	-0.000000	0.000000	0.000000
37.019112	12.356367	23.157661	0.250612	-0.133264	2.232928	0.000000	-0.021393	0.000000	0.000001	-0.000000	0.000000	0.000000
37.352445	12.198849	23.251387	0.221941	-0.147914	2.225797	0.000000	-0.021393	0.000000	0.000001	-0.000000	0.000000	0.000000
37.685779	12.060445	23.354880	0.193270	-0.162564	2.218666	0.000000	-0.021393	0.000000	0.000001	-0.000000	0.000000	0.000000
38.020362	11.940744	23.468582	0.164492	-0.177268	2.211508	0.000000	-0.021393	0.000000	0.000001	-0.000000	0.000000	0.000000
38.317684	11.850533	23.577878	0.167979	-0.248155	2.205148	0.000000	-0.026800	0.000000	0.000001	-0.000000	0.000000	0.000000
38.758644	11.853553	23.535596	-0.174853	0.343677	2.207255	0.000000	0.036364	0.000000	0.000001	-0.000000	0.000000	0.000000
39.199604	12.161289	22.976293	-0.525673	0.919872	2.237279	0.000000	0.099943	0.000000	0.000001	-0.000000	0.000000	0.000000
39.640564	12.787802	21.925417	-0.900510	1.454214	2.295564	0.000000	0.164660	0.000000	0.000001	-0.000000	0.000000	0.000000
40.081524	13.761714	20.430782	-1.316488	1.922390	2.382772	0.000000	0.231253	0.000000	0.000001	-0.000000	0.000000	0.000000
40.527484	15.145084	18.537825	-1.796436	2.304377	2.501368	0.000000	0.300885	0.000000	0.000001	-0.000000	0.000000	0.000000
41.076544	16.910692	16.410721	-1.400221	1.592575	2.646047	0.000000	0.225344	0.000000	0.000001	-0.000000	0.000000	0.000000
41.625604	18.183990	14.998757	-0.905101	0.994208	2.748089	0.000000	0.145806	0.000000	0.000001	-0.000000	0.000000	0.000000
42.174664	18.875037	14.201361	-0.346049	0.466656	2.805684	0.000000	0.063682	0.000000	0.000000	-0.000000	0.000000	0.000000
42.723724	18.935022	13.961738	0.237445	-0.027656	2.817812	0.000000	-0.019572	0.000000	0.000000	-0.000000	0.000000	0.000000
43.022297	18.827650	13.962855	0.171646	-0.012563	2.814166	0.000000	-0.012209	0.000000	0.000000	-0.000000	0.000000	0.000000
43.502297	18.675467	13.991419	0.145401	-0.046946	2.808306	0.000000	-0.012209	0.000000	0.000000	-0.000000	0.000000	0.000000
43.982297	18.548480	14.052991	0.119155	-0.081328	2.802446	0.000000	-0.012209	0.000000	0.000000	-0.000000	0.000000	0.000000
44.462297	18.446689	14.147569	0.092910	-0.115711	2.796585	0.000000	-0.012209	0.000000	0.000000	-0.000000	0.000000	0.000000
44.942297	18.370093	14.275155	0.066664	-0.150093	2.790725	0.000000	-0.012209	0.000000	0.000000	-0.000000	0.000000	0.000000
45.423547	18.318820	14.436030	-0.050411	-0.113040	2.784866	0.000000	0.001589	0.000000	0.000000	-0.000000	0.000000	0.000000
45.720870	18.353634	14.509451	-0.114638	-0.095988	2.785339	0.000000	0.008866	0.000000	0.000000	-0.000000	0.000000	0.000000
46.269930	18.170474	14.895566	0.446252	-0.611393	2.767639	0.000000	-0.073245	0.000000	0.000000	-0.000000	0.000000	0.000000
46.818990	17.385132	15.868107	0.975620	-1.170345	2.705146	0.000000	-0.154057	0.000000	0.000000	-0.000000	0.000000	0.000000
47.368050	16.053082	17.496344	1.436075	-1.812659	2.598968	0.000000	-0.232136	0.000000	-0.000000	-0.000000	0.000000	0.000000
47.917110	14.268412	19.896253	1.795093	-2.584084	2.450988	0.000000	-0.306098	0.000000	-0.000000	-0.000000	0.000000	0.000000
48.363070	12.879444	22.030095	1.330497	-2.180629	2.329771	0.000000	-0.237808	0.000000	-0.000000	-0.000000	0.000000	0.000000
48.804030	11.886223	23.738638	0.930454	-1.679225	2.239365	0.000000	-0.172623	0.000000	-0.000000	-0.000000	0.000000	0.000000
49.244990	11.225800	24.969475	0.572921	-1.101419	2.177243	0.000000	-0.109404	0.000000	-0.000000	-0.000000	0.000000	0.000000
49.685950	10.868003	25.666603	0.241562	-0.473499	2.142697	0.000000	-0.047431	0.000000	-0.000000	-0.000000	0.000000	0.000000
50.128160	10.796616	25.798023	-0.052399	0.112651	2.135345	0.000000	0.008765	0.000000	-0.000000	-0.000000	0.000000	0.000000
50.425482	10.835985	25.734505	-0.080014	0.100980	2.137951	0.000000	0.008765	0.000000	-0.000000	-0.000000	0.000000	0.000000
50.758816	10.899647	25.671547	-0.110972	0.087895	2.140873	0.000000	0.008765	0.000000	-0.000000	-0.000000	0.000000	0.000000
51.092149	10.983948	25.617312	-0.141931	0.074810	2.143795	0.000000	0.008765	0.000000	-0.000000	-0.000000	0.000000	0.000000
51.426732	11.089096	25.572164	-0.083044	-0.145777	2.146706	0.000000	-0.008650	0.000000	-0.000001	-0.000000	0.000000	0.000000
51.724055	11.146504	25.662380	-0.082706	-0.220583	2.144134	0.000000	-0.013908	0.000000	-0.000001	-0.000000	0.000000	0.000000
52.165015	11.364942	25.571450	-0.414542	0.426008	2.151589	0.000000	0.047752	0.000000	-0.000001	-0.000000	0.000000	0.000000
52.605975	11.883246	24.916679	-0.765317	1.053217	2.186327	0.000000	0.109957	0.000000	-0.000001	-0.000000	0.000000	0.000000
53.046935	12.725098	23.727859	-1.151058	1.632506	2.248746	0.000000	0.173414	0.000000	-0.000001	-0.000000	0.000000	0.000000
53.487895	13.928957	22.059080	-1.589387	2.137516	2.339554	0.000000	0.238846	0.000000	-0.000001	-0.000000	0.000000	0.000000
53.933855	15.570456	19.961316	-2.104569	2.546605	2.461293	0.000000	0.307397	0.000000	-0.000001	-0.000000	0.000000	0.000000
54.482915	17.683774	17.600906	-1.721621	1.777773	2.609892	0.000000	0.233091	0.000000	-0.000001	-0.000000	0.000000	0.000000
55.031975	19.306898	16.010693	-1.217066	1.135568	2.716496	0.000000	0.154651	0.000000	-0.000001	-0.000000	0.000000	0.000000
55.581035	20.325179	15.077410	-0.626544	0.574247	2.779214	0.000000	0.073468	0.000000	-0.000001	-0.000000	0.000000	0.000000
56.130095	20.666689	14.734583	0.008234	0.053828	2.796933	0.000000	-0.009019	0.000000	-0.000001	-0.000000	0.000000	0.000000
56.428668	20.698340	14.685552	-0.060242	0.071891	2.796422	0.000000	-0.001711	0.000000	-0.000001	-0.000000	0.000000	0.000000
56.762001	20.743889	14.645229	-0.076405	0.049076	2.795852	0.000000	-0.001711	0.000000	-0.000001	-0.000000	0.000000	0.000000
57.095334	20.800213	14.620117	-0.092567	0.026261	2.795281	0.000000	-0.001711	0.000000	-0.000001	-0.000000	0.000000	0.000000
57.429918	20.867584	14.610207	-0.108791	0.003360	2.794709	0.000000	-0.001711	0.000000	-0.000001	-0.000000	0.000000	0.000000
57.727240	20.936562	14.614259	-0.177912	0.021194	2.794200	0.000000	0.005590	0.000000	-0.000001	-0.000000	0.000000	0.000000
58.276300	20.774677	14.871705	0.471007	-0.492846	2.774628	0.000000	-0.076778	0.000000	-0.000001	-0.000000	0.000000	0.000000
58.825360	19.914333	15.709477	1.086657	-1.041990	2.710139	0.000000	-0.157784	0.000000	-0.000001	0.000000	0.000000	0.000000
59.374420	18.416301	17.187248	1.625550	-1.665353	2.601876	0.000000	-0.235992	0.000000	-0.000001	0.000000	0.000000	0.000000
59.923480	16.386394	19.410276	2.049623	-2.407335	2.451761	0.000000	-0.310013	0.000000	-0.000001	0.000000	0.000000	0.000000
60.369440	14.797491	21.386206	1.525877	-2.004698	2.328799	0.000000	-0.241725	0.000000	-0.000001	0.000000	0.000000	0.000000
60.810400	13.654478	22.942950	1.076057	-1.512219	2.236657	0.000000	-0.176588	0.000000	-0.000001	0.000000	0.000000	0.000000
61.251360	12.885075	24.033251	0.675400	-0.950934	2.172768	0.000000	-0.113461	0.000000	-0.000001	-0.000000	0.000000	0.000000
61.692320	12.454128	24.607502	0.305600	-0.346383	2.136403	0.000000	-0.051627	0.000000	-0.000001	-0.000000	0.000000	0.000000
62.134530	12.342000	24.639040	-0.020074	0.213451	2.127156	0.000000	0.004402	0.000000	-0.000001	-0.000000	0.000000	0.000000
62.431853	12.361102	24.515864	-0.044174	0.200834	2.128465	0.000000	0.004402	0.000000	-0.000001	-0.000000	0.000000	0.000000
62.765186	12.399557	24.386690	-0.071193	0.186689	2.129932	0.000000	0.004402	0.000000	-0.000001	-0.000000	0.000000	0.000000
63.098520	12.456025	24.266946	-0.098212	0.172543	2.131400	0.000000	0.004402	0.000000	-0.000001	-0.000000	0.000000	0.000000
63.433103	12.530819	24.156236	-0.125332	0.158345	2.132873	0.000000	0.004402	0.000000	-0.000001	-0.000000	0.000000	0.000000
63.730426	12.612513	24.065828	-0.118502	0.086711	2.134181	0.000000	-0.000831	0.000000	-0.000001	-0.000000	0.000000	0.000000
64.171386	12.877566	23.724302	-0.484861	0.684847	2.147357	0.000000	0.060647	0.000000	-0.000001	-0.000000	0.000000	0.000000
64.612346	13.474229	22.867046	-0.873372	1.251822	2.187768	0.000000	0.122815	0.000000	-0.000002	-0.000000	0.000000	0.000000
65.053306	14.429762	21.533065	-1.301786	1.761841	2.255875	0.000000	0.186383	0.000000	-0.000002	-0.000000	0.000000	0.000000
65.494266	15.787819	19.783054	-1.789674	2.191697	2.352454	0.000000	0.252073	0.000000	-0.000002	-0.000000	0.000000	0.000000
65.940226	17.633618	17.671861	-2.364021	2.522591	2.480177	0.000000	0.321036	0.000000	-0.000002	-0.000000	0.000000	0.000000
66.489286	19.999525	15.310008	-1.919486	1.804430	2.636075	0.000000	0.246000	0.000000	-0.000002	-0.000000	0.000000	0.000000
67.038346	21.799486	13.662000	-1.339367	1.214796	2.749513	0.000000	0.166600	0.000000	-0.000002	-0.000000	0.000000	0.000000
67.587406	22.906360	12.610452	-0.664643	0.711688	2.818480	0.000000	0.084246	0.000000	-0.000002	-0.000000	0.000000	0.000000
68.136466	23.241963	12.080465	0.057029	0.259272	2.841751	0.000000	0.000397	0.000000	-0.000002	-0.000000	0.000000	0.000000
68.435038	23.248008	11.914797	-0.016546	0.264031	2.844087	0.000000	0.007822	0.000000	-0.000002	-0.000000	0.000000	0.000000
68.768372	23.263819	11.748752	-0.030888	0.234104	2.846694	0.000000	0.007822	0.000000	-0.000002	-0.000000	0.000000	0.000000
69.101705	23.289192	11.602658	-0.045230	0.204177	2.849302	0.000000	0.007822	0.000000	-0.000002	-0.000000	0.000000	0.000000
69.436288	23.324275	11.476080	-0.059626	0.174138	2.851919	0.000000	0.007822	0.000000	-0.000002	-0.000000	0.000000	0.000000
69.733611	23.363534	11.380466	-0.133464	0.177180	2.854245	0.000000	0.015280	0.000000	-0.000002	-0.000000	0.000000	0.000000
70.282671	23.108848	11.413732	0.594577	-0.238125	2.839445	0.000000	-0.069111	0.000000	-0.000002	0.000000	0.000000	0.000000
