#ParticleID	Turn	x[m]	xp	y[m]	yp	z[m]	dE[GeV]# s	beta_x	beta_y	alpha_x	alpha_y	D_x	D_y	D_px	D_py	orbit_x	orbit_px	orbit_y	orbit_py
0.300000	11.813889	25.018646	-0.011011	-0.027290	2.618048	0.000000	0.000037	0.000000	-0.000000	0.000001	0.000000	0.000000
0.601250	11.828206	25.038718	-0.036514	-0.039340	2.618059	0.000000	0.000037	0.000000	0.000000	0.000001	0.000000	0.000000
0.898573	11.857402	25.065647	-0.032607	-0.112700	2.618069	0.000000	-0.006383	0.000000	0.000001	0.000001	0.000000	0.000000
1.339533	12.038289	24.886994	-0.379159	0.516305	2.631547	0.000000	0.067573	0.000000	0.000001	0.000001	0.000000	0.000000
1.780493	12.531261	24.161887	-0.743035	1.121819	2.677775	0.000000	0.142299	0.000000	0.000002	0.000001	0.000000	0.000000
2.221453	13.358843	22.923320	-1.140857	1.676290	2.757280	0.000000	0.218645	0.000000	0.000002	0.000001	0.000000	0.000000
2.662413	14.558843	21.227645	-1.590802	2.154492	2.870967	0.000000	0.297482	0.000000	0.000003	0.000001	0.000000	0.000000
3.108373	16.206832	19.127148	-2.117716	2.535799	3.021992	0.000000	0.380197	0.000000	0.000003	0.000001	0.000000	0.000000
3.657433	18.320103	16.767978	-1.708387	1.786305	3.205471	0.000000	0.287158	0.000000	0.000004	0.000001	0.000000	0.000000
4.206493	19.914554	15.157564	-1.178387	1.164046	3.336390	0.000000	0.189027	0.000000	0.000005	0.000001	0.000000	0.000000
4.755553	20.877561	14.181199	-0.565151	0.624699	3.412428	0.000000	0.087542	0.000000	0.000005	0.000001	0.000000	0.000000
5.304613	21.141103	13.769339	0.088005	0.129848	3.432236	0.000000	-0.015495	0.000000	0.000006	0.000001	0.000000	0.000000
5.603185	21.125756	13.676971	0.018632	0.143543	3.430287	0.000000	-0.006528	0.000000	0.000006	0.000001	0.000000	0.000000
5.936519	21.118596	13.589567	0.002848	0.118669	3.428111	0.000000	-0.006528	0.000000	0.000006	0.000001	0.000000	0.000000
6.269852	21.121959	13.518746	-0.012936	0.093795	3.425935	0.000000	-0.006528	0.000000	0.000007	0.000001	0.000000	0.000000
6.604435	21.135916	13.464335	-0.028779	0.068827	3.423750	0.000000	-0.006528	0.000000	0.000007	0.000001	0.000000	0.000000
6.901758	21.157216	13.430004	-0.098135	0.081729	3.421809	0.000000	0.002413	0.000000	0.000007	0.000001	0.000000	0.000000
7.450818	20.904398	13.601072	0.555865	-0.395133	3.394931	0.000000	-0.100172	0.000000	0.000007	0.000001	0.000000	0.000000
7.999878	19.950820	14.308081	1.170601	-0.900139	3.312134	0.000000	-0.200980	0.000000	0.000008	0.000000	0.000000	0.000000
8.548938	18.363837	15.601388	1.702652	-1.469259	3.174885	0.000000	-0.298224	0.000000	0.000008	0.000000	0.000000	0.000000
9.097998	16.255546	17.573114	2.114436	-2.143032	2.985620	0.000000	-0.390177	0.000000	0.000008	-0.000000	0.000000	0.000000
9.543958	14.610697	19.330021	1.587011	-1.779921	2.829924	0.000000	-0.308467	0.000000	0.000008	0.000000	0.000000	0.000000
9.984918	13.414329	20.709735	1.136380	-1.337059	2.711150	0.000000	-0.230754	0.000000	0.000008	0.000000	0.000000	0.000000
10.425878	12.591073	21.670460	0.737666	-0.833362	2.626032	0.000000	-0.155669	0.000000	0.000008	0.000000	0.000000	0.000000
10.866838	12.103316	22.168483	0.372655	-0.291747	2.573602	0.000000	-0.082357	0.000000	0.000008	0.000001	0.000000	0.000000
11.309048	11.928639	22.180623	0.053815	0.208692	2.553242	0.000000	-0.016243	0.000000	0.000009	0.000001	0.000000	0.000000
11.606371	11.904070	22.060685	0.028818	0.194704	2.548412	0.000000	-0.016243	0.000000	0.000009	0.000001	0.000000	0.000000
12.086371	11.895776	21.884609	-0.011538	0.172121	2.540615	0.000000	-0.016243	0.000000	0.000009	0.000001	0.000000	0.000000
12.566371	11.926224	21.730213	-0.051894	0.149538	2.532818	0.000000	-0.016243	0.000000	0.000010	0.000001	0.000000	0.000000
13.046371	11.995413	21.597496	-0.092250	0.126955	2.525021	0.000000	-0.016243	0.000000	0.000010	0.000001	0.000000	0.000000
13.526371	12.103343	21.486460	-0.132606	0.104372	2.517223	0.000000	-0.016243	0.000000	0.000011	0.000001	0.000000	0.000000
14.007621	12.250448	21.396898	-0.173067	0.081730	2.509406	0.000000	-0.016243	0.000000	0.000011	0.000001	0.000000	0.000000
14.304943	12.360794	21.352457	-0.167755	0.015385	2.504576	0.000000	-0.022385	0.000000	0.000011	0.000001	0.000000	0.000000
14.745903	12.667282	21.105186	-0.529929	0.543238	2.510338	0.000000	0.048546	0.000000	0.000012	0.000001	0.000000	0.000000
15.186863	13.302607	20.401553	-0.916314	1.046374	2.547470	0.000000	0.120030	0.000000	0.000012	0.000001	0.000000	0.000000
15.627823	14.295796	19.273573	-1.344563	1.501901	2.616395	0.000000	0.192881	0.000000	0.000013	0.000002	0.000000	0.000000
16.068783	15.692224	17.772569	-1.834241	1.889092	2.717897	0.000000	0.267929	0.000000	0.000014	0.000002	0.000000	0.000000
16.514743	17.579347	15.945331	-2.412478	2.191076	2.854828	0.000000	0.346491	0.000000	0.000015	0.000002	0.000000	0.000000
17.063803	20.003088	13.905048	-1.975735	1.546814	3.021336	0.000000	0.259144	0.000000	0.000016	0.000002	0.000000	0.000000
17.612863	21.867296	12.507953	-1.399437	1.012727	3.138552	0.000000	0.167200	0.000000	0.000017	0.000001	0.000000	0.000000
18.161923	23.040293	11.654533	-0.724289	0.550775	3.204396	0.000000	0.072291	0.000000	0.000018	0.000001	0.000000	0.000000
18.710983	23.439224	11.284002	0.002019	0.128054	3.217700	0.000000	-0.023900	0.000000	0.000018	0.000000	0.000000	0.000000
19.009556	23.478400	11.198029	-0.071997	0.130416	3.213074	0.000000	-0.015494	0.000000	0.000018	0.000000	0.000000	0.000000
19.342889	23.531155	11.121176	-0.086268	0.100143	3.207909	0.000000	-0.015494	0.000000	0.000018	0.000000	0.000000	0.000000
19.676223	23.593423	11.064505	-0.100539	0.069869	3.202744	0.000000	-0.015494	0.000000	0.000018	0.000000	0.000000	0.000000
20.010806	23.665786	11.027781	-0.232117	0.094121	3.197580	0.000000	0.000348	0.000000	0.000018	0.000000	0.000000	0.000000
20.308129	23.807750	10.979900	-0.307553	0.095605	3.197683	0.000000	0.008702	0.000000	0.000018	0.000000	0.000000	0.000000
20.857189	23.734855	11.097062	0.439531	-0.310250	3.176236	0.000000	-0.086709	0.000000	0.000019	-0.000000	0.000000	0.000000
21.406249	22.853833	11.669347	1.155569	-0.738202	3.102749	0.000000	-0.180582	0.000000	0.000018	-0.000001	0.000000	0.000000
21.955309	21.226917	12.737518	1.789983	-1.218735	2.978525	0.000000	-0.271252	0.000000	0.000018	-0.000001	0.000000	0.000000
22.504369	18.969024	14.377658	2.297961	-1.786076	2.805767	0.000000	-0.357110	0.000000	0.000017	-0.000002	0.000000	0.000000
22.950329	17.189585	15.850210	1.706254	-1.501975	2.663807	0.000000	-0.279887	0.000000	0.000016	-0.000001	0.000000	0.000000
23.391289	15.914118	17.024265	1.197197	-1.150390	2.556714	0.000000	-0.206305	0.000000	0.000016	-0.000001	0.000000	0.000000
23.832249	15.061873	17.863897	0.742837	-0.746463	2.481519	0.000000	-0.135074	0.000000	0.000015	-0.000001	0.000000	0.000000
24.273209	14.593915	18.330902	0.322415	-0.308572	2.437365	0.000000	-0.065381	0.000000	0.000015	-0.000000	0.000000	0.000000
24.715418	14.488983	18.403788	-0.047838	0.098164	2.423746	0.000000	-0.002375	0.000000	0.000015	0.000000	0.000000	0.000000
25.012741	14.523545	18.350265	-0.068405	0.081853	2.423040	0.000000	-0.002375	0.000000	0.000015	0.000000	0.000000	0.000000
25.346075	14.576834	18.301792	-0.091464	0.063566	2.422248	0.000000	-0.002375	0.000000	0.000015	0.000000	0.000000	0.000000
25.679408	14.645496	18.265510	-0.114523	0.045279	2.421457	0.000000	-0.002375	0.000000	0.000015	0.000000	0.000000	0.000000
26.013991	14.729576	18.241722	-0.018172	-0.121062	2.420638	0.000000	-0.022013	0.000000	0.000015	0.000000	0.000000	0.000000
26.311314	14.746386	18.318628	-0.002207	-0.182516	2.414093	0.000000	-0.027932	0.000000	0.000015	-0.000000	0.000000	0.000000
26.752274	14.930013	18.280925	-0.415799	0.267692	2.416889	0.000000	0.040628	0.000000	0.000015	0.000000	0.000000	0.000000
27.193234	15.485362	17.850049	-0.848388	0.705721	2.449991	0.000000	0.109651	0.000000	0.000016	0.000001	0.000000	0.000000
27.634194	16.437805	17.045604	-1.319737	1.111640	2.513775	0.000000	0.179923	0.000000	0.000016	0.000001	0.000000	0.000000
28.075154	17.830857	15.904192	-1.851381	1.466980	2.608968	0.000000	0.252244	0.000000	0.000017	0.000002	0.000000	0.000000
28.521114	19.752364	14.460552	-2.472577	1.756486	2.738258	0.000000	0.327881	0.000000	0.000017	0.000002	0.000000	0.000000
29.070174	22.194613	12.852060	-1.949145	1.190343	2.895613	0.000000	0.244459	0.000000	0.000018	0.000001	0.000000	0.000000
29.619234	23.982604	11.815335	-1.288035	0.708985	3.005906	0.000000	0.156702	0.000000	0.000019	0.000001	0.000000	0.000000
30.168294	24.990042	11.276532	-0.535944	0.278126	3.067179	0.000000	0.066164	0.000000	0.000019	0.000000	0.000000	0.000000
30.717354	25.145767	11.197275	0.254003	-0.132923	3.078346	0.000000	-0.025546	0.000000	0.000019	-0.000000	0.000000	0.000000
31.015927	25.036988	11.267228	0.176018	-0.130622	3.073120	0.000000	-0.017505	0.000000	0.000019	-0.000000	0.000000	0.000000
31.349260	24.924218	11.364339	0.162291	-0.160711	3.067285	0.000000	-0.017505	0.000000	0.000019	-0.000000	0.000000	0.000000
31.682593	24.820599	11.481510	0.148565	-0.190800	3.061451	0.000000	-0.017505	0.000000	0.000019	-0.000000	0.000000	0.000000
32.017177	24.725794	11.619292	0.134788	-0.221002	3.055594	0.000000	-0.017505	0.000000	0.000019	-0.000000	0.000000	0.000000
32.314499	24.649283	11.758690	0.058151	-0.217122	3.050390	0.000000	-0.009536	0.000000	0.000019	-0.000000	0.000000	0.000000
32.863559	24.163104	12.236329	0.822083	-0.657934	3.020266	0.000000	-0.100034	0.000000	0.000018	-0.000001	0.000000	0.000000
33.412619	22.865112	13.220772	1.527947	-1.145609	2.940868	0.000000	-0.188757	0.000000	0.000018	-0.000001	0.000000	0.000000
33.961679	20.846991	14.782138	2.125885	-1.714884	2.813604	0.000000	-0.274133	0.000000	0.000017	-0.000002	0.000000	0.000000
34.510739	18.251291	17.031641	2.573661	-2.406305	2.640732	0.000000	-0.354646	0.000000	0.000016	-0.000003	0.000000	0.000000
34.956699	16.233025	19.043740	1.968219	-2.086694	2.498920	0.000000	-0.281701	0.000000	0.000014	-0.000002	0.000000	0.000000
35.397659	14.728034	20.707898	1.457713	-1.672886	2.390087	0.000000	-0.212393	0.000000	0.000014	-0.000002	0.000000	0.000000
35.838619	13.642311	21.972023	1.013807	-1.182962	2.311254	0.000000	-0.145504	0.000000	0.000013	-0.000001	0.000000	0.000000
36.279579	12.926252	22.778599	0.616218	-0.639215	2.261522	0.000000	-0.080272	0.000000	0.000012	-0.000001	0.000000	0.000000
36.721789	12.546448	23.091236	0.277441	-0.123057	2.240300	0.000000	-0.021448	0.000000	0.000012	-0.000001	0.000000	0.000000
37.019112	12.389057	23.168298	0.251919	-0.136128	2.233924	0.000000	-0.021448	0.000000	0.000012	-0.000001	0.000000	0.000000
37.352445	12.230649	23.263935	0.223306	-0.150783	2.226775	0.000000	-0.021448	0.000000	0.000011	-0.000001	0.000000	0.000000
37.685779	12.091316	23.369341	0.194693	-0.165437	2.219626	0.000000	-0.021448	0.000000	0.000011	-0.000001	0.000000	0.000000
38.020362	11.970644	23.484967	0.165973	-0.180146	2.212450	0.000000	-0.021448	0.000000	0.000011	-0.000001	0.000000	0.000000
38.317684	11.879537	23.595977	0.169580	-0.251076	2.206074	0.000000	-0.026857	0.000000	0.000010	-0.000001	0.000000	0.000000
38.758644	11.881433	23.556050	-0.173895	0.341276	2.208161	0.000000	0.036331	0.000000	0.000010	-0.000001	0.000000	0.000000
39.199604	12.188591	22.998594	-0.525316	0.918100	2.238176	0.000000	0.099933	0.000000	0.000010	-0.000000	0.000000	0.000000
39.640564	12.815047	21.948972	-0.900736	1.453151	2.296461	0.000000	0.164674	0.000000	0.000010	-0.000000	0.000000	0.000000
40.081524	13.789419	20.454942	-1.317309	1.922085	2.383680	0.000000	0.231290	0.000000	0.000010	0.000000	0.000000	0.000000
40.527484	15.173802	18.561910	-1.797892	2.304849	2.502298	0.000000	0.300945	0.000000	0.000010	0.000000	0.000000	0.000000
41.076544	16.940428	16.434610	-1.400608	1.592458	2.647002	0.000000	0.225374	0.000000	0.000010	0.000000	0.000000	0.000000
41.625604	18.213548	15.023099	-0.904391	0.993495	2.749052	0.000000	0.145805	0.000000	0.000010	-0.000000	0.000000	0.000000
42.174664	18.903233	14.226835	-0.344293	0.465295	2.806638	0.000000	0.063650	0.000000	0.000010	-0.000001	0.000000	0.000000
42.723724	18.960769	13.989105	0.240124	-0.029762	2.818740	0.000000	-0.019634	0.000000	0.000009	-0.000001	0.000000	0.000000
43.022297	18.851833	13.991425	0.174268	-0.014558	2.815076	0.000000	-0.012270	0.000000	0.000009	-0.000001	0.000000	0.000000
43.502297	18.697128	14.021871	0.148033	-0.048872	2.809187	0.000000	-0.012270	0.000000	0.000009	-0.000001	0.000000	0.000000
43.982297	18.567610	14.085259	0.121798	-0.083186	2.803298	0.000000	-0.012270	0.000000	0.000008	-0.000001	0.000000	0.000000
44.462297	18.463276	14.181588	0.095563	-0.117500	2.797409	0.000000	-0.012270	0.000000	0.000008	-0.000001	0.000000	0.000000
44.942297	18.384128	14.310858	0.069328	-0.151814	2.791519	0.000000	-0.012270	0.000000	0.000007	-0.000001	0.000000	0.000000
45.423547	18.330286	14.473356	-0.047794	-0.114507	2.785632	0.000000	0.001531	0.000000	0.000007	-0.000001	0.000000	0.000000
45.720870	18.363539	14.547635	-0.112029	-0.097311	2.786088	0.000000	0.008811	0.000000	0.000007	-0.000001	0.000000	0.000000
46.269930	18.177354	14.935851	0.449119	-0.613917	2.768351	0.000000	-0.073324	0.000000	0.000006	-0.000001	0.000000	0.000000
46.818990	17.388815	15.911901	0.978543	-1.174250	2.705809	0.000000	-0.154159	0.000000	0.000006	-0.000001	0.000000	0.000000
47.368050	16.053618	17.545307	1.438847	-1.818223	2.599570	0.000000	-0.232258	0.000000	0.000005	-0.000001	0.000000	0.000000
47.917110	14.266077	19.952413	1.797519	-2.591704	2.451519	0.000000	-0.306239	0.000000	0.000004	-0.000002	0.000000	0.000000
48.363070	12.875034	22.092527	1.332744	-2.187014	2.330243	0.000000	-0.237935	0.000000	0.000003	-0.000001	0.000000	0.000000
48.804030	11.879871	23.806050	0.932627	-1.684091	2.239784	0.000000	-0.172739	0.000000	0.000003	-0.000001	0.000000	0.000000
49.244990	11.217527	25.040423	0.575120	-1.104542	2.177614	0.000000	-0.109510	0.000000	0.000002	-0.000001	0.000000	0.000000
49.685950	10.857742	25.739483	0.243888	-0.474738	2.143023	0.000000	-0.047528	0.000000	0.000002	-0.000001	0.000000	0.000000
50.128160	10.784203	25.871140	-0.049872	0.113174	2.135631	0.000000	0.008676	0.000000	0.000001	-0.000001	0.000000	0.000000
50.425482	10.822076	25.807302	-0.077510	0.101534	2.138210	0.000000	0.008676	0.000000	0.000001	-0.000001	0.000000	0.000000
50.758816	10.884079	25.743963	-0.108497	0.088485	2.141103	0.000000	0.008676	0.000000	0.000000	-0.000001	0.000000	0.000000
51.092149	10.966738	25.689323	-0.139483	0.075435	2.143995	0.000000	0.008676	0.000000	-0.000000	-0.000001	0.000000	0.000000
51.426732	11.070258	25.643746	-0.080776	-0.145698	2.146876	0.000000	-0.008741	0.000000	-0.000000	-0.000001	0.000000	0.000000
51.724055	11.126328	25.733905	-0.080524	-0.220646	2.144278	0.000000	-0.013999	0.000000	-0.000001	-0.000001	0.000000	0.000000
52.165015	11.342622	25.642195	-0.411844	0.427834	2.151694	0.000000	0.047664	0.000000	-0.000001	-0.000001	0.000000	0.000000
52.605975	11.858276	24.985008	-0.761980	1.056849	2.186395	0.000000	0.109871	0.000000	-0.000002	-0.000001	0.000000	0.000000
53.046935	12.696847	23.792246	-1.146929	1.637778	2.248776	0.000000	0.173329	0.000000	-0.000002	-0.000001	0.000000	0.000000
53.487895	13.896649	22.118180	-1.584278	2.144189	2.339548	0.000000	0.238762	0.000000	-0.000003	-0.000001	0.000000	0.000000
53.933855	15.533063	20.013948	-2.098237	2.554378	2.461249	0.000000	0.307312	0.000000	-0.000004	-0.000001	0.000000	0.000000
54.482915	17.639908	17.646140	-1.716233	1.783553	2.609803	0.000000	0.233009	0.000000	-0.000004	-0.000001	0.000000	0.000000
55.031975	19.257812	16.050481	-1.213004	1.139767	2.716363	0.000000	0.154572	0.000000	-0.000005	-0.000001	0.000000	0.000000
55.581035	20.272495	15.113315	-0.624094	0.577164	2.779039	0.000000	0.073393	0.000000	-0.000006	-0.000001	0.000000	0.000000
56.130095	20.612285	14.767890	0.008898	0.055670	2.796720	0.000000	-0.009087	0.000000	-0.000006	-0.000001	0.000000	0.000000
56.428668	20.643467	14.717694	-0.059475	0.073861	2.796189	0.000000	-0.001779	0.000000	-0.000007	-0.000001	0.000000	0.000000
56.762001	20.688518	14.676045	-0.075679	0.051089	2.795596	0.000000	-0.001779	0.000000	-0.000007	-0.000001	0.000000	0.000000
57.095334	20.744373	14.649576	-0.091884	0.028317	2.795003	0.000000	-0.001779	0.000000	-0.000007	-0.000001	0.000000	0.000000
57.429918	20.811300	14.638275	-0.108149	0.005459	2.794408	0.000000	-0.001779	0.000000	-0.000007	-0.000001	0.000000	0.000000
57.727240	20.879907	14.641068	-0.177161	0.023404	2.793880	0.000000	0.005521	0.000000	-0.000008	-0.000001	0.000000	0.000000
58.276300	20.718244	14.896499	0.469854	-0.491366	2.774273	0.000000	-0.076836	0.000000	-0.000008	-0.000001	0.000000	0.000000
58.825360	19.860180	15.732996	1.083682	-1.041134	2.709756	0.000000	-0.157830	0.000000	-0.000008	-0.000000	0.000000	0.000000
59.374420	18.366325	17.210140	1.620963	-1.665061	2.601472	0.000000	-0.236024	0.000000	-0.000008	-0.000000	0.000000	0.000000
59.923480	16.342198	19.433145	2.043748	-2.407586	2.451342	0.000000	-0.310033	0.000000	-0.000008	0.000000	0.000000	0.000000
60.369440	14.757940	21.408963	1.521297	-2.004197	2.328369	0.000000	-0.241756	0.000000	-0.000008	-0.000000	0.000000	0.000000
60.810400	13.618479	22.964943	1.072554	-1.510994	2.236211	0.000000	-0.176629	0.000000	-0.000008	-0.000000	0.000000	0.000000
61.251360	12.851750	24.053864	0.672813	-0.949042	2.172301	0.000000	-0.113515	0.000000	-0.000009	-0.000000	0.000000	0.000000
61.692320	12.422727	24.626181	0.303810	-0.343909	2.135910	0.000000	-0.051693	0.000000	-0.000009	-0.000001	0.000000	0.000000
62.134530	12.311859	24.655314	-0.021219	0.216350	2.126631	0.000000	0.004324	0.000000	-0.000009	-0.000001	0.000000	0.000000
62.431853	12.331660	24.530416	-0.045379	0.203726	2.127917	0.000000	0.004324	0.000000	-0.000009	-0.000001	0.000000	0.000000
62.765186	12.370942	24.399316	-0.072466	0.189574	2.129359	0.000000	0.004324	0.000000	-0.000010	-0.000001	0.000000	0.000000
63.098520	12.428281	24.277651	-0.099552	0.175421	2.130800	0.000000	0.004324	0.000000	-0.000010	-0.000001	0.000000	0.000000
63.433103	12.503994	24.165017	-0.126740	0.161216	2.132247	0.000000	0.004324	0.000000	-0.000010	-0.000001	0.000000	0.000000
63.730426	12.586543	24.072905	-0.120031	0.089552	2.133533	0.000000	-0.000908	0.000000	-0.000011	-0.000001	0.000000	0.000000
64.171386	12.852697	23.728814	-0.485837	0.687801	2.146671	0.000000	0.060552	0.000000	-0.000011	-0.000001	0.000000	0.000000
64.612346	13.449993	22.868952	-0.873839	1.254756	2.187038	0.000000	0.122703	0.000000	-0.000012	-0.000001	0.000000	0.000000
65.053306	14.405720	21.532443	-1.301764	1.764620	2.255091	0.000000	0.186250	0.000000	-0.000012	-0.000002	0.000000	0.000000
65.494266	15.763543	19.780096	-1.789163	2.194195	2.351608	0.000000	0.251920	0.000000	-0.000013	-0.000002	0.000000	0.000000
65.940226	17.608658	17.666846	-2.362995	2.524690	2.479259	0.000000	0.320860	0.000000	-0.000014	-0.000002	0.000000	0.000000
66.489286	19.973968	15.302790	-1.919432	1.806369	2.635069	0.000000	0.245855	0.000000	-0.000015	-0.000002	0.000000	0.000000
67.038346	21.774408	13.652678	-1.340290	1.216712	2.748438	0.000000	0.166489	0.000000	-0.000016	-0.000001	0.000000	0.000000
67.587406	22.882803	12.598976	-0.666477	0.713718	2.817354	0.000000	0.084171	0.000000	-0.000017	-0.000001	0.000000	0.000000
68.136466	23.220864	12.066631	0.054413	0.261561	2.840594	0.000000	0.000359	0.000000	-0.000017	-0.000000	0.000000	0.000000
68.435038	23.228445	11.899634	-0.019126	0.266224	2.842918	0.000000	0.007782	0.000000	-0.000017	-0.000000	0.000000	0.000000
68.768372	23.245981	11.732150	-0.033481	0.236227	2.845512	0.000000	0.007782	0.000000	-0.000017	-0.000000	0.000000	0.000000
69.101705	23.273087	11.584665	-0.047837	0.206229	2.848106	0.000000	0.007782	0.000000	-0.000017	-0.000000	0.000000	0.000000
69.436288	23.309919	11.456737	-0.062246	0.176120	2.850710	0.000000	0.007782	0.000000	-0.000018	-0.000000	0.000000	0.000000
69.733611	23.350740	11.359964	-0.136071	0.179049	2.853024	0.000000	0.015238	0.000000	-0.000018	-0.000000	0.000000	0.000000
70.282671	23.099125	11.390856	0.591624	-0.235645	2.838212	0.000000	-0.069113	0.000000	-0.000018	0.000000	0.000000	0.000000
