#ParticleID	Turn	x[m]	xp	y[m]	yp	z[m]	dE[GeV]# s	beta_x	beta_y	alpha_x	alpha_y	D_x	D_y	D_px	D_py	orbit_x	orbit_px	orbit_y	orbit_py
0.300000	11.804203	25.056519	-0.010103	-0.026823	2.618259	0.000000	-0.000043	0.000000	-0.000001	0.000002	0.000000	0.000000
0.601250	11.817980	25.076305	-0.035626	-0.038854	2.618245	0.000000	-0.000043	0.000000	-0.000001	0.000002	0.000000	0.000000
0.898573	11.846654	25.102940	-0.031765	-0.112288	2.618232	0.000000	-0.006463	0.000000	-0.000000	0.000002	0.000000	0.000000
1.339533	12.026684	24.923489	-0.378051	0.517694	2.631675	0.000000	0.067497	0.000000	0.000000	0.000002	0.000000	0.000000
1.780493	12.518544	24.196749	-0.741609	1.124121	2.677870	0.000000	0.142225	0.000000	0.000001	0.000002	0.000000	0.000000
2.221453	13.344706	22.955786	-1.139049	1.679402	2.757343	0.000000	0.218574	0.000000	0.000002	0.000002	0.000000	0.000000
2.662413	14.542913	21.257061	-1.588529	2.158271	2.870998	0.000000	0.297412	0.000000	0.000003	0.000002	0.000000	0.000000
3.108373	16.188628	19.152957	-2.114870	2.540074	3.021993	0.000000	0.380127	0.000000	0.000004	0.000002	0.000000	0.000000
3.657433	18.299023	16.789682	-1.706026	1.789552	3.205433	0.000000	0.287089	0.000000	0.000005	0.000002	0.000000	0.000000
4.206493	19.891226	15.176158	-1.176678	1.166496	3.336314	0.000000	0.188960	0.000000	0.000006	0.000002	0.000000	0.000000
4.755553	20.852773	14.197459	-0.564214	0.626526	3.412316	0.000000	0.087478	0.000000	0.000007	0.000001	0.000000	0.000000
5.304613	21.115744	13.783873	0.088103	0.131183	3.432089	0.000000	-0.015555	0.000000	0.000007	0.000001	0.000000	0.000000
5.603185	21.100303	13.690681	0.018779	0.144928	3.430122	0.000000	-0.006588	0.000000	0.000008	0.000001	0.000000	0.000000
5.936519	21.093052	13.602349	0.002976	0.120069	3.427926	0.000000	-0.006588	0.000000	0.000008	0.000001	0.000000	0.000000
6.269852	21.096335	13.530589	-0.012827	0.095211	3.425729	0.000000	-0.006588	0.000000	0.000008	0.000001	0.000000	0.000000
6.604435	21.110226	13.475225	-0.028689	0.070258	3.423524	0.000000	-0.006588	0.000000	0.000009	0.000001	0.000000	0.000000
6.901758	21.131477	13.440039	-0.097994	0.083199	3.421565	0.000000	0.002351	0.000000	0.000009	0.000001	0.000000	0.000000
7.450818	20.878978	13.609641	0.555147	-0.393916	3.394656	0.000000	-0.100225	0.000000	0.000010	0.000001	0.000000	0.000000
7.999878	19.926639	14.315412	1.169076	-0.899089	3.311831	0.000000	-0.201024	0.000000	0.000010	0.000001	0.000000	0.000000
8.548938	18.341728	15.607625	1.700426	-1.468303	3.174562	0.000000	-0.298257	0.000000	0.000011	0.000000	0.000000	0.000000
9.097998	16.236195	17.578321	2.111667	-2.142100	2.985281	0.000000	-0.390200	0.000000	0.000011	-0.000000	0.000000	0.000000
9.543958	14.593547	19.334278	1.584827	-1.778734	2.829573	0.000000	-0.308498	0.000000	0.000011	0.000000	0.000000	0.000000
9.984918	13.398886	20.712853	1.134677	-1.335673	2.710783	0.000000	-0.230794	0.000000	0.000011	0.000001	0.000000	0.000000
10.425878	12.576948	21.672291	0.736368	-0.831840	2.625645	0.000000	-0.155719	0.000000	0.000011	0.000001	0.000000	0.000000
10.866838	12.090181	22.168937	0.371700	-0.290159	2.573190	0.000000	-0.082417	0.000000	0.000012	0.000001	0.000000	0.000000
11.309048	11.916213	22.179670	0.053129	0.210279	2.552800	0.000000	-0.016314	0.000000	0.000012	0.000001	0.000000	0.000000
11.606371	11.892060	22.058790	0.028107	0.196281	2.547949	0.000000	-0.016314	0.000000	0.000013	0.000001	0.000000	0.000000
12.086371	11.884466	21.881208	-0.012288	0.173683	2.540118	0.000000	-0.016314	0.000000	0.000013	0.000001	0.000000	0.000000
12.566371	11.915652	21.725319	-0.052683	0.151084	2.532287	0.000000	-0.016314	0.000000	0.000014	0.000001	0.000000	0.000000
13.046371	11.985617	21.591126	-0.093078	0.128486	2.524455	0.000000	-0.016314	0.000000	0.000015	0.000001	0.000000	0.000000
13.526371	12.094361	21.478626	-0.133472	0.105888	2.516624	0.000000	-0.016314	0.000000	0.000015	0.000001	0.000000	0.000000
14.007621	12.242319	21.387613	-0.173973	0.083230	2.508772	0.000000	-0.016314	0.000000	0.000016	0.000001	0.000000	0.000000
14.304943	12.353210	21.342283	-0.168705	0.016903	2.503922	0.000000	-0.022453	0.000000	0.000016	0.000001	0.000000	0.000000
14.745903	12.660471	21.093803	-0.530738	0.544450	2.509649	0.000000	0.048460	0.000000	0.000017	0.000002	0.000000	0.000000
15.186863	13.296462	20.389257	-0.917019	1.047224	2.546739	0.000000	0.119926	0.000000	0.000018	0.000002	0.000000	0.000000
15.627823	14.290238	19.260702	-1.345195	1.502350	2.615613	0.000000	0.192758	0.000000	0.000019	0.000003	0.000000	0.000000
16.068783	15.687204	17.759487	-1.834830	1.889121	2.717056	0.000000	0.267784	0.000000	0.000020	0.000003	0.000000	0.000000
16.514743	17.574844	15.932414	-2.413052	2.190680	2.853916	0.000000	0.346323	0.000000	0.000022	0.000004	0.000000	0.000000
17.063803	19.999365	13.892398	-1.976573	1.546721	3.020341	0.000000	0.259007	0.000000	0.000024	0.000003	0.000000	0.000000
17.612863	21.864612	12.495242	-1.400478	1.012932	3.137491	0.000000	0.167097	0.000000	0.000025	0.000002	0.000000	0.000000
18.161923	23.038831	11.641428	-0.725460	0.551292	3.203287	0.000000	0.072223	0.000000	0.000026	0.000001	0.000000	0.000000
18.710983	23.439083	11.270143	0.000800	0.128919	3.216564	0.000000	-0.023932	0.000000	0.000026	0.000001	0.000000	0.000000
19.009556	23.478984	11.183688	-0.073213	0.131203	3.211927	0.000000	-0.015530	0.000000	0.000027	0.000001	0.000000	0.000000
19.342889	23.532550	11.106326	-0.087486	0.100884	3.206750	0.000000	-0.015530	0.000000	0.000027	0.000001	0.000000	0.000000
19.676223	23.595632	11.049176	-0.101759	0.070566	3.201573	0.000000	-0.015530	0.000000	0.000027	0.000001	0.000000	0.000000
20.010806	23.668812	11.012001	-0.233354	0.094694	3.196397	0.000000	0.000307	0.000000	0.000027	0.000001	0.000000	0.000000
20.308129	23.811514	10.963791	-0.308801	0.096092	3.196488	0.000000	0.008657	0.000000	0.000027	0.000001	0.000000	0.000000
20.857189	23.739913	11.080168	0.438434	-0.309299	3.175027	0.000000	-0.086715	0.000000	0.000028	-0.000000	0.000000	0.000000
21.406249	22.859978	11.651126	1.154700	-0.736721	3.101547	0.000000	-0.180549	0.000000	0.000027	-0.000001	0.000000	0.000000
21.955309	21.233861	12.717333	1.789404	-1.216618	2.977352	0.000000	-0.271180	0.000000	0.000027	-0.000002	0.000000	0.000000
22.504369	18.976424	14.354732	2.297713	-1.783172	2.804644	0.000000	-0.357002	0.000000	0.000025	-0.000003	0.000000	0.000000
22.950329	17.197256	15.824927	1.705891	-1.499617	2.662727	0.000000	-0.279806	0.000000	0.000024	-0.000002	0.000000	0.000000
23.391289	15.922165	16.997183	1.196703	-1.148683	2.555663	0.000000	-0.206253	0.000000	0.000024	-0.000001	0.000000	0.000000
23.832249	15.070421	17.835626	0.742190	-0.745485	2.480485	0.000000	-0.135048	0.000000	0.000023	-0.000001	0.000000	0.000000
24.273209	14.603111	18.302108	0.321585	-0.308367	2.436337	0.000000	-0.065381	0.000000	0.000023	-0.000000	0.000000	0.000000
24.715418	14.499008	18.375159	-0.048866	0.097659	2.422712	0.000000	-0.002399	0.000000	0.000023	0.000000	0.000000	0.000000
25.012741	14.534177	18.321944	-0.069421	0.081324	2.421999	0.000000	-0.002399	0.000000	0.000023	0.000000	0.000000	0.000000
25.346075	14.588140	18.273832	-0.092466	0.063011	2.421199	0.000000	-0.002399	0.000000	0.000023	0.000000	0.000000	0.000000
25.679408	14.657466	18.237929	-0.115511	0.044698	2.420399	0.000000	-0.002399	0.000000	0.000023	0.000000	0.000000	0.000000
26.013991	14.742203	18.214539	-0.019044	-0.121450	2.419572	0.000000	-0.022028	0.000000	0.000023	0.000000	0.000000	0.000000
26.311314	14.759526	18.291683	-0.003033	-0.182861	2.413022	0.000000	-0.027945	0.000000	0.000023	0.000000	0.000000	0.000000
26.752274	14.944026	18.254606	-0.416959	0.266624	2.415807	0.000000	0.040588	0.000000	0.000023	0.000001	0.000000	0.000000
27.193234	15.500565	17.824974	-0.849935	0.703977	2.448885	0.000000	0.109583	0.000000	0.000024	0.000001	0.000000	0.000000
27.634194	16.454569	17.022337	-1.321742	1.109300	2.512632	0.000000	0.179825	0.000000	0.000024	0.000002	0.000000	0.000000
28.075154	17.849624	15.883212	-1.853936	1.464151	2.607775	0.000000	0.252116	0.000000	0.000025	0.000003	0.000000	0.000000
28.521114	19.773700	14.442268	-2.475804	1.753296	2.737000	0.000000	0.327722	0.000000	0.000027	0.000003	0.000000	0.000000
29.070174	22.219200	12.836869	-1.951802	1.187867	2.894279	0.000000	0.244342	0.000000	0.000028	0.000002	0.000000	0.000000
29.619234	24.009709	11.802553	-1.289935	0.707047	3.004519	0.000000	0.156628	0.000000	0.000029	0.000001	0.000000	0.000000
30.168294	25.018754	11.265646	-0.536953	0.276589	3.065764	0.000000	0.066136	0.000000	0.000030	0.000000	0.000000	0.000000
30.717354	25.175062	11.187908	0.253956	-0.134168	3.076929	0.000000	-0.025528	0.000000	0.000030	-0.000001	0.000000	0.000000
31.015927	25.066349	11.258630	0.175915	-0.131925	3.071707	0.000000	-0.017491	0.000000	0.000030	-0.000000	0.000000	0.000000
31.349260	24.953642	11.356620	0.162205	-0.162047	3.065876	0.000000	-0.017491	0.000000	0.000029	-0.000000	0.000000	0.000000
31.682593	24.850075	11.474692	0.148496	-0.192169	3.060046	0.000000	-0.017491	0.000000	0.000029	-0.000000	0.000000	0.000000
32.017177	24.755311	11.613402	0.134735	-0.222404	3.054194	0.000000	-0.017491	0.000000	0.000029	-0.000000	0.000000	0.000000
32.314499	24.678828	11.753642	0.058041	-0.218570	3.048994	0.000000	-0.009527	0.000000	0.000029	-0.000000	0.000000	0.000000
32.863559	24.192231	12.232827	0.822948	-0.659319	3.018887	0.000000	-0.099979	0.000000	0.000028	-0.000001	0.000000	0.000000
33.412619	22.892778	13.218802	1.529727	-1.147031	2.939531	0.000000	-0.188659	0.000000	0.000027	-0.000002	0.000000	0.000000
33.961679	20.872255	14.781796	2.128453	-1.716443	2.812334	0.000000	-0.273992	0.000000	0.000026	-0.000003	0.000000	0.000000
34.510739	18.273382	17.033137	2.576836	-2.408114	2.639551	0.000000	-0.354466	0.000000	0.000024	-0.000004	0.000000	0.000000
34.956699	16.252596	19.046915	1.970714	-2.088633	2.497813	0.000000	-0.281551	0.000000	0.000022	-0.000003	0.000000	0.000000
35.397659	14.745658	20.712806	1.459649	-1.674864	2.389040	0.000000	-0.212270	0.000000	0.000021	-0.000003	0.000000	0.000000
35.838619	13.658442	21.978661	1.015270	-1.184890	2.310255	0.000000	-0.145408	0.000000	0.000020	-0.000002	0.000000	0.000000
36.279579	12.941274	22.786883	0.617277	-0.641005	2.260561	0.000000	-0.080201	0.000000	0.000019	-0.000002	0.000000	0.000000
36.721789	12.560694	23.101012	0.278177	-0.124648	2.239365	0.000000	-0.021398	0.000000	0.000019	-0.000001	0.000000	0.000000
37.019112	12.402860	23.179019	0.252674	-0.137719	2.233003	0.000000	-0.021398	0.000000	0.000018	-0.000001	0.000000	0.000000
37.352445	12.243941	23.275716	0.224083	-0.152372	2.225871	0.000000	-0.021398	0.000000	0.000018	-0.000001	0.000000	0.000000
37.685779	12.104083	23.382183	0.195491	-0.167026	2.218738	0.000000	-0.021398	0.000000	0.000017	-0.000001	0.000000	0.000000
38.020362	11.982869	23.498872	0.166793	-0.181734	2.211579	0.000000	-0.021398	0.000000	0.000017	-0.000001	0.000000	0.000000
38.317684	11.891269	23.610826	0.170446	-0.252697	2.205217	0.000000	-0.026805	0.000000	0.000017	-0.000001	0.000000	0.000000
38.758644	11.892517	23.572150	-0.173287	0.340070	2.207322	0.000000	0.036361	0.000000	0.000016	-0.000001	0.000000	0.000000
39.199604	12.199243	23.015554	-0.524938	0.917365	2.237346	0.000000	0.099942	0.000000	0.000016	-0.000000	0.000000	0.000000
39.640564	12.825460	21.966360	-0.900572	1.452920	2.295630	0.000000	0.164661	0.000000	0.000016	-0.000000	0.000000	0.000000
40.081524	13.799779	20.472307	-1.317350	1.922369	2.382839	0.000000	0.231255	0.000000	0.000016	0.000000	0.000000	0.000000
40.527484	15.184291	18.578793	-1.798143	2.305638	2.501436	0.000000	0.300888	0.000000	0.000016	0.000001	0.000000	0.000000
41.076544	16.950965	16.450884	-1.400442	1.592787	2.646116	0.000000	0.225345	0.000000	0.000016	0.000000	0.000000	0.000000
41.625604	18.223677	15.039251	-0.903820	0.993387	2.748158	0.000000	0.145805	0.000000	0.000016	-0.000000	0.000000	0.000000
42.174664	18.912530	14.243347	-0.343358	0.464744	2.805753	0.000000	0.063679	0.000000	0.000016	-0.000001	0.000000	0.000000
42.723724	18.968867	14.006482	0.241358	-0.030797	2.817878	0.000000	-0.019577	0.000000	0.000015	-0.000001	0.000000	0.000000
43.022297	18.859206	14.009387	0.175483	-0.015522	2.814232	0.000000	-0.012215	0.000000	0.000015	-0.000001	0.000000	0.000000
43.502297	18.703335	14.040738	0.149248	-0.049793	2.808369	0.000000	-0.012215	0.000000	0.000014	-0.000001	0.000000	0.000000
43.982297	18.572650	14.104990	0.123012	-0.084064	2.802506	0.000000	-0.012215	0.000000	0.000014	-0.000001	0.000000	0.000000
44.462297	18.467151	14.202141	0.096777	-0.118335	2.796643	0.000000	-0.012215	0.000000	0.000013	-0.000001	0.000000	0.000000
44.942297	18.386839	14.332193	0.070541	-0.152606	2.790780	0.000000	-0.012215	0.000000	0.000012	-0.000001	0.000000	0.000000
45.423547	18.331829	14.495433	-0.046589	-0.115147	2.784920	0.000000	0.001583	0.000000	0.000012	-0.000001	0.000000	0.000000
45.720870	18.364365	14.570084	-0.110821	-0.097865	2.785391	0.000000	0.008860	0.000000	0.000011	-0.000001	0.000000	0.000000
46.269930	18.176849	14.959285	0.450320	-0.615168	2.767687	0.000000	-0.073253	0.000000	0.000011	-0.000002	0.000000	0.000000
46.818990	17.387033	15.937129	0.979652	-1.176287	2.705190	0.000000	-0.154067	0.000000	0.000010	-0.000002	0.000000	0.000000
47.368050	16.050705	17.573267	1.439786	-1.821191	2.599008	0.000000	-0.232147	0.000000	0.000009	-0.000002	0.000000	0.000000
47.917110	14.262257	19.984237	1.798221	-2.595814	2.451023	0.000000	-0.306111	0.000000	0.000007	-0.000002	0.000000	0.000000
48.363070	12.870589	22.127711	1.333447	-2.190406	2.329801	0.000000	-0.237819	0.000000	0.000006	-0.000002	0.000000	0.000000
48.804030	11.874793	23.843852	0.933364	-1.686613	2.239392	0.000000	-0.172633	0.000000	0.000005	-0.000002	0.000000	0.000000
49.244990	11.211772	25.080022	0.575925	-1.106080	2.177266	0.000000	-0.109414	0.000000	0.000004	-0.000002	0.000000	0.000000
49.685950	10.851234	25.779977	0.244797	-0.475221	2.142716	0.000000	-0.047440	0.000000	0.000004	-0.000002	0.000000	0.000000
50.128160	10.776829	25.911584	-0.048835	0.113669	2.135361	0.000000	0.008756	0.000000	0.000003	-0.000002	0.000000	0.000000
50.425482	10.814092	25.847446	-0.076490	0.102047	2.137965	0.000000	0.008756	0.000000	0.000002	-0.000002	0.000000	0.000000
50.758816	10.875420	25.783759	-0.107495	0.089016	2.140884	0.000000	0.008756	0.000000	0.000002	-0.000002	0.000000	0.000000
51.092149	10.957418	25.728758	-0.138499	0.075986	2.143803	0.000000	0.008756	0.000000	0.000001	-0.000002	0.000000	0.000000
51.426732	11.060285	25.682808	-0.079891	-0.145445	2.146712	0.000000	-0.008659	0.000000	0.000000	-0.000002	0.000000	0.000000
51.724055	11.115835	25.772811	-0.079686	-0.220470	2.144138	0.000000	-0.013917	0.000000	-0.000000	-0.000002	0.000000	0.000000
52.165015	11.331279	25.680491	-0.410746	0.429035	2.151590	0.000000	0.047744	0.000000	-0.000001	-0.000002	0.000000	0.000000
52.605975	11.845831	25.021813	-0.760573	1.059018	2.186325	0.000000	0.109948	0.000000	-0.000002	-0.000002	0.000000	0.000000
53.046935	12.683002	23.826746	-1.145148	1.640818	2.248741	0.000000	0.173405	0.000000	-0.000003	-0.000002	0.000000	0.000000
53.487895	13.881038	22.149664	-1.582042	2.147961	2.339546	0.000000	0.238837	0.000000	-0.000003	-0.000002	0.000000	0.000000
53.933855	15.515215	20.041801	-2.095438	2.558713	2.461281	0.000000	0.307388	0.000000	-0.000004	-0.000002	0.000000	0.000000
54.482915	17.619230	17.669850	-1.713911	1.786810	2.609876	0.000000	0.233082	0.000000	-0.000005	-0.000002	0.000000	0.000000
55.031975	19.234922	16.071097	-1.211322	1.142177	2.716476	0.000000	0.154643	0.000000	-0.000006	-0.000002	0.000000	0.000000
55.581035	20.248166	15.131669	-0.623171	0.578899	2.779190	0.000000	0.073460	0.000000	-0.000007	-0.000002	0.000000	0.000000
56.130095	20.587392	14.784651	0.008997	0.056854	2.796906	0.000000	-0.009026	0.000000	-0.000008	-0.000001	0.000000	0.000000
56.428668	20.618481	14.733716	-0.059329	0.075108	2.796394	0.000000	-0.001717	0.000000	-0.000009	-0.000001	0.000000	0.000000
56.762001	20.663441	14.691228	-0.075553	0.052356	2.795822	0.000000	-0.001717	0.000000	-0.000009	-0.000001	0.000000	0.000000
57.095334	20.719218	14.663907	-0.091776	0.029605	2.795250	0.000000	-0.001717	0.000000	-0.000009	-0.000001	0.000000	0.000000
57.429918	20.786080	14.651737	-0.108061	0.006768	2.794676	0.000000	-0.001717	0.000000	-0.000010	-0.000001	0.000000	0.000000
57.727240	20.854640	14.653746	-0.177026	0.024765	2.794165	0.000000	0.005584	0.000000	-0.000010	-0.000001	0.000000	0.000000
58.276300	20.693293	14.907875	0.469146	-0.490339	2.774591	0.000000	-0.076783	0.000000	-0.000011	-0.000001	0.000000	0.000000
58.825360	19.836451	15.743394	1.082179	-1.040370	2.710100	0.000000	-0.157788	0.000000	-0.000011	-0.000001	0.000000	0.000000
59.374420	18.344635	17.219816	1.618773	-1.664503	2.601836	0.000000	-0.235994	0.000000	-0.000011	-0.000000	0.000000	0.000000
59.923480	16.323221	19.442304	2.041025	-2.407196	2.451719	0.000000	-0.310014	0.000000	-0.000012	0.000000	0.000000	0.000000
60.369440	14.741129	21.417620	1.519148	-2.003464	2.328757	0.000000	-0.241727	0.000000	-0.000012	-0.000000	0.000000	0.000000
60.810400	13.603348	22.972815	1.070876	-1.509953	2.236614	0.000000	-0.176591	0.000000	-0.000012	-0.000000	0.000000	0.000000
61.251360	12.837921	24.060699	0.671529	-0.947741	2.172723	0.000000	-0.113466	0.000000	-0.000012	-0.000001	0.000000	0.000000
61.692320	12.409877	24.631777	0.302863	-0.342408	2.136357	0.000000	-0.051633	0.000000	-0.000012	-0.000001	0.000000	0.000000
62.134530	12.299714	24.659518	-0.021903	0.217971	2.127108	0.000000	0.004395	0.000000	-0.000013	-0.000001	0.000000	0.000000
62.431853	12.319929	24.533658	-0.046087	0.205341	2.128415	0.000000	0.004395	0.000000	-0.000013	-0.000001	0.000000	0.000000
62.765186	12.359692	24.401484	-0.073201	0.191181	2.129880	0.000000	0.004395	0.000000	-0.000014	-0.000001	0.000000	0.000000
63.098520	12.417531	24.278749	-0.100315	0.177022	2.131346	0.000000	0.004395	0.000000	-0.000014	-0.000001	0.000000	0.000000
63.433103	12.493765	24.165047	-0.127531	0.162809	2.132817	0.000000	0.004395	0.000000	-0.000015	-0.000001	0.000000	0.000000
63.730426	12.576791	24.071989	-0.120869	0.091138	2.134124	0.000000	-0.000839	0.000000	-0.000015	-0.000001	0.000000	0.000000
64.171386	12.843593	23.726523	-0.486475	0.689322	2.147297	0.000000	0.060637	0.000000	-0.000016	-0.000002	0.000000	0.000000
64.612346	13.441375	22.865374	-0.874307	1.256142	2.187704	0.000000	0.122804	0.000000	-0.000017	-0.000002	0.000000	0.000000
65.053306	14.397448	21.527725	-1.302083	1.765808	2.255807	0.000000	0.186370	0.000000	-0.000018	-0.000003	0.000000	0.000000
65.494266	15.755492	19.774438	-1.789347	2.195132	2.352381	0.000000	0.252058	0.000000	-0.000019	-0.000003	0.000000	0.000000
65.940226	17.600714	17.660483	-2.363053	2.525329	2.480099	0.000000	0.321019	0.000000	-0.000020	-0.000004	0.000000	0.000000
66.489286	19.966281	15.295704	-1.919842	1.807053	2.635990	0.000000	0.245986	0.000000	-0.000022	-0.000003	0.000000	0.000000
67.038346	21.767352	13.644794	-1.341023	1.217490	2.749422	0.000000	0.166590	0.000000	-0.000024	-0.000002	0.000000	0.000000
67.587406	22.876707	12.590161	-0.667481	0.714646	2.818385	0.000000	0.084238	0.000000	-0.000025	-0.000001	0.000000	0.000000
68.136466	23.215988	12.056685	0.053208	0.262705	2.841653	0.000000	0.000393	0.000000	-0.000025	-0.000001	0.000000	0.000000
68.435038	23.224285	11.889031	-0.020325	0.267306	2.843988	0.000000	0.007819	0.000000	-0.000025	-0.000001	0.000000	0.000000
68.768372	23.242621	11.720841	-0.034684	0.237265	2.846595	0.000000	0.007819	0.000000	-0.000026	-0.000001	0.000000	0.000000
69.101705	23.270530	11.572677	-0.049043	0.207225	2.849201	0.000000	0.007819	0.000000	-0.000026	-0.000001	0.000000	0.000000
69.436288	23.308170	11.444098	-0.063455	0.177072	2.851817	0.000000	0.007819	0.000000	-0.000026	-0.000001	0.000000	0.000000
69.733611	23.349711	11.346770	-0.137285	0.179930	2.854142	0.000000	0.015278	0.000000	-0.000026	-0.000001	0.000000	0.000000
70.282671	23.099436	11.376488	0.590411	-0.234376	2.839343	0.000000	-0.069109	0.000000	-0.000026	0.000000	0.000000	0.000000
