#ParticleID	Turn	x[m]	xp	y[m]	yp	z[m]	dE[GeV]# s	beta_x	beta_y	alpha_x	alpha_y	D_x	D_y	D_px	D_py	orbit_x	orbit_px	orbit_y	orbit_py
0.300000	11.822401	24.983728	-0.012050	-0.027591	2.618095	0.000000	0.000020	0.000000	-0.000001	0.000001	0.000000	0.000000
0.601250	11.837339	25.003987	-0.037535	-0.039658	2.618101	0.000000	0.000020	0.000000	-0.000001	0.000001	0.000000	0.000000
0.898573	11.867137	25.031110	-0.033586	-0.112952	2.618107	0.000000	-0.006401	0.000000	-0.000000	0.000001	0.000000	0.000000
1.339533	12.048992	24.853081	-0.380386	0.515146	2.631577	0.000000	0.067557	0.000000	-0.000000	0.000001	0.000000	0.000000
1.780493	12.543176	24.129379	-0.744564	1.119806	2.677799	0.000000	0.142283	0.000000	0.000000	0.000001	0.000000	0.000000
2.221453	13.372265	22.892931	-1.142760	1.673515	2.757297	0.000000	0.218630	0.000000	0.000000	0.000001	0.000000	0.000000
2.662413	14.574139	21.199996	-1.593165	2.151080	2.870978	0.000000	0.297467	0.000000	0.000001	0.000001	0.000000	0.000000
3.108373	16.224482	19.102770	-2.120651	2.531904	3.021997	0.000000	0.380182	0.000000	0.000001	0.000001	0.000000	0.000000
3.657433	18.340745	16.747332	-1.710871	1.783366	3.205468	0.000000	0.287144	0.000000	0.000001	0.000001	0.000000	0.000000
4.206493	19.937593	15.139720	-1.180243	1.161852	3.336379	0.000000	0.189013	0.000000	0.000002	0.000001	0.000000	0.000000
4.755553	20.902232	14.165428	-0.566249	0.623094	3.412410	0.000000	0.087529	0.000000	0.000002	0.000001	0.000000	0.000000
5.304613	21.166526	13.755060	0.087742	0.128719	3.432211	0.000000	-0.015508	0.000000	0.000002	0.000000	0.000000	0.000000
5.603185	21.151371	13.663392	0.018318	0.142362	3.430258	0.000000	-0.006540	0.000000	0.000002	0.000000	0.000000	0.000000
5.936519	21.144414	13.576781	0.002554	0.117472	3.428077	0.000000	-0.006540	0.000000	0.000003	0.000000	0.000000	0.000000
6.269852	21.147966	13.506763	-0.013211	0.092581	3.425897	0.000000	-0.006540	0.000000	0.000003	0.000000	0.000000	0.000000
6.604435	21.162101	13.453170	-0.029035	0.067598	3.423709	0.000000	-0.006540	0.000000	0.000003	0.000000	0.000000	0.000000
6.901758	21.183548	13.419575	-0.098444	0.080458	3.421764	0.000000	0.002400	0.000000	0.000003	0.000000	0.000000	0.000000
7.450818	20.930583	13.591882	0.556439	-0.396132	3.394879	0.000000	-0.100183	0.000000	0.000003	0.000000	0.000000	0.000000
7.999878	19.975905	14.299872	1.172018	-0.900938	3.312076	0.000000	-0.200990	0.000000	0.000003	0.000000	0.000000	0.000000
8.548938	18.386947	15.593974	1.704812	-1.469916	3.174823	0.000000	-0.298231	0.000000	0.000004	0.000000	0.000000	0.000000
9.097998	16.275944	17.566364	2.117186	-2.143592	2.985554	0.000000	-0.390182	0.000000	0.000004	0.000000	0.000000	0.000000
9.543958	14.628918	19.323895	1.589159	-1.780757	2.829856	0.000000	-0.308474	0.000000	0.000004	0.000000	0.000000	0.000000
9.984918	13.430882	20.704453	1.138029	-1.338131	2.711078	0.000000	-0.230762	0.000000	0.000004	0.000000	0.000000	0.000000
10.425878	12.606362	21.666210	0.738893	-0.834621	2.625956	0.000000	-0.155679	0.000000	0.000004	0.000000	0.000000	0.000000
10.866838	12.117689	22.165405	0.373515	-0.293136	2.573521	0.000000	-0.082369	0.000000	0.000004	0.000000	0.000000	0.000000
11.309048	11.942400	22.178808	0.054381	0.207239	2.553155	0.000000	-0.016258	0.000000	0.000004	0.000001	0.000000	0.000000
11.606371	11.917486	22.059731	0.029411	0.193258	2.548321	0.000000	-0.016258	0.000000	0.000004	0.000001	0.000000	0.000000
12.086371	11.908601	21.885038	-0.010900	0.170686	2.540516	0.000000	-0.016258	0.000000	0.000005	0.000001	0.000000	0.000000
12.566371	11.938415	21.732014	-0.051212	0.148114	2.532712	0.000000	-0.016258	0.000000	0.000005	0.000001	0.000000	0.000000
13.046371	12.006928	21.600659	-0.091524	0.125543	2.524908	0.000000	-0.016258	0.000000	0.000005	0.000001	0.000000	0.000000
13.526371	12.114141	21.490972	-0.131836	0.102971	2.517103	0.000000	-0.016258	0.000000	0.000005	0.000001	0.000000	0.000000
14.007621	12.260483	21.402754	-0.172252	0.080340	2.509279	0.000000	-0.016258	0.000000	0.000006	0.000001	0.000000	0.000000
14.304943	12.370336	21.359137	-0.166888	0.013983	2.504445	0.000000	-0.022400	0.000000	0.000006	0.000000	0.000000	0.000000
14.745903	12.676146	21.113014	-0.529252	0.542047	2.510200	0.000000	0.048528	0.000000	0.000006	0.000001	0.000000	0.000000
15.186863	13.310946	20.410318	-0.915795	1.045448	2.547323	0.000000	0.120008	0.000000	0.000006	0.000001	0.000000	0.000000
15.627823	14.303738	19.283023	-1.344179	1.501282	2.616237	0.000000	0.192855	0.000000	0.000007	0.000001	0.000000	0.000000
16.068783	15.699880	17.782418	-1.833974	1.888808	2.717727	0.000000	0.267899	0.000000	0.000007	0.000001	0.000000	0.000000
16.514743	17.586812	15.955277	-2.412316	2.191143	2.854644	0.000000	0.346456	0.000000	0.000008	0.000001	0.000000	0.000000
17.063803	20.010183	13.915034	-1.975227	1.546674	3.021135	0.000000	0.259115	0.000000	0.000008	0.000001	0.000000	0.000000
17.612863	21.873658	12.518209	-1.398618	1.012372	3.138338	0.000000	0.167178	0.000000	0.000009	0.000001	0.000000	0.000000
18.161923	23.045611	11.665310	-0.723218	0.550178	3.204172	0.000000	0.072276	0.000000	0.000009	0.000001	0.000000	0.000000
18.710983	23.443261	11.295585	0.003267	0.127173	3.217470	0.000000	-0.023908	0.000000	0.000009	0.000000	0.000000	0.000000
19.009556	23.481699	11.210108	-0.070760	0.129602	3.212841	0.000000	-0.015502	0.000000	0.000010	0.000000	0.000000	0.000000
19.342889	23.533628	11.133785	-0.085026	0.099368	3.207674	0.000000	-0.015502	0.000000	0.000010	0.000000	0.000000	0.000000
19.676223	23.595068	11.077618	-0.099293	0.069133	3.202506	0.000000	-0.015502	0.000000	0.000010	0.000000	0.000000	0.000000
20.010806	23.666595	11.041374	-0.230870	0.093491	3.197340	0.000000	0.000340	0.000000	0.000010	0.000000	0.000000	0.000000
20.308129	23.807816	10.993856	-0.306303	0.095050	3.197440	0.000000	0.008693	0.000000	0.000010	0.000000	0.000000	0.000000
20.857189	23.733553	11.111844	0.440756	-0.311209	3.175991	0.000000	-0.086710	0.000000	0.000010	-0.000000	0.000000	0.000000
21.406249	22.851241	11.685434	1.156682	-0.739635	3.102505	0.000000	-0.180575	0.000000	0.000010	-0.000000	0.000000	0.000000
21.955309	21.223200	12.755483	1.790906	-1.220743	2.978287	0.000000	-0.271237	0.000000	0.000010	-0.000001	0.000000	0.000000
22.504369	18.964427	14.398207	2.298630	-1.788802	2.805539	0.000000	-0.357088	0.000000	0.000009	-0.000001	0.000000	0.000000
22.950329	17.184382	15.872986	1.706950	-1.504222	2.663588	0.000000	-0.279870	0.000000	0.000009	-0.000001	0.000000	0.000000
23.391289	15.908278	17.048774	1.197952	-1.152058	2.556500	0.000000	-0.206294	0.000000	0.000008	-0.000000	0.000000	0.000000
23.832249	15.055329	17.889592	0.743686	-0.747476	2.481309	0.000000	-0.135068	0.000000	0.000008	-0.000000	0.000000	0.000000
24.273209	14.586566	18.357184	0.323396	-0.308884	2.437156	0.000000	-0.065380	0.000000	0.000008	-0.000000	0.000000	0.000000
24.715418	14.480691	18.430028	-0.046697	0.098500	2.423536	0.000000	-0.002380	0.000000	0.000008	0.000000	0.000000	0.000000
25.012741	14.514577	18.376299	-0.067274	0.082211	2.422829	0.000000	-0.002380	0.000000	0.000008	0.000000	0.000000	0.000000
25.346075	14.567117	18.327579	-0.090343	0.063949	2.422035	0.000000	-0.002380	0.000000	0.000008	0.000000	0.000000	0.000000
25.679408	14.635035	18.291033	-0.113413	0.045687	2.421242	0.000000	-0.002380	0.000000	0.000008	0.000000	0.000000	0.000000
26.013991	14.718376	18.266965	-0.017164	-0.120834	2.420421	0.000000	-0.022016	0.000000	0.000008	0.000000	0.000000	0.000000
26.311314	14.734590	18.343728	-0.001240	-0.182329	2.413875	0.000000	-0.027935	0.000000	0.000008	0.000000	0.000000	0.000000
26.752274	14.917234	18.305560	-0.414527	0.268556	2.416669	0.000000	0.040619	0.000000	0.000008	0.000000	0.000000	0.000000
27.193234	15.471306	17.873637	-0.846753	0.707222	2.449766	0.000000	0.109637	0.000000	0.000009	0.000000	0.000000	0.000000
27.634194	16.422121	17.067612	-1.317665	1.113709	2.513542	0.000000	0.179902	0.000000	0.000009	0.000001	0.000000	0.000000
28.075154	17.813118	15.924159	-1.848777	1.469524	2.608725	0.000000	0.252217	0.000000	0.000009	0.000001	0.000000	0.000000
28.521114	19.732018	14.478080	-2.469316	1.759389	2.738002	0.000000	0.327848	0.000000	0.000010	0.000001	0.000000	0.000000
29.070174	22.170953	12.866785	-1.946408	1.192576	2.895342	0.000000	0.244435	0.000000	0.000010	0.000001	0.000000	0.000000
29.619234	23.956316	11.827901	-1.286015	0.710706	3.005623	0.000000	0.156686	0.000000	0.000011	0.000001	0.000000	0.000000
30.168294	24.961997	11.287431	-0.534784	0.279459	3.066891	0.000000	0.066158	0.000000	0.000011	0.000000	0.000000	0.000000
30.717354	25.116961	11.206877	0.254221	-0.131882	3.078057	0.000000	-0.025543	0.000000	0.000011	-0.000000	0.000000	0.000000
31.015927	25.008015	11.276185	0.176290	-0.129526	3.072832	0.000000	-0.017502	0.000000	0.000011	-0.000000	0.000000	0.000000
31.349260	24.895069	11.372554	0.162547	-0.159583	3.066998	0.000000	-0.017502	0.000000	0.000011	-0.000000	0.000000	0.000000
31.682593	24.791285	11.488962	0.148804	-0.189639	3.061164	0.000000	-0.017502	0.000000	0.000011	-0.000000	0.000000	0.000000
32.017177	24.696326	11.625956	0.135009	-0.219809	3.055308	0.000000	-0.017502	0.000000	0.000011	-0.000000	0.000000	0.000000
32.314499	24.619689	11.764636	0.058429	-0.215882	3.050105	0.000000	-0.009533	0.000000	0.000011	-0.000000	0.000000	0.000000
32.863559	24.133745	12.240976	0.821378	-0.656794	3.019984	0.000000	-0.100022	0.000000	0.000010	-0.000000	0.000000	0.000000
33.412619	22.837047	13.224183	1.526309	-1.144487	2.940595	0.000000	-0.188736	0.000000	0.000010	-0.000001	0.000000	0.000000
33.961679	20.821188	14.784290	2.123429	-1.713699	2.813345	0.000000	-0.274103	0.000000	0.000010	-0.000001	0.000000	0.000000
34.510739	18.228558	17.032420	2.570561	-2.404975	2.640491	0.000000	-0.354608	0.000000	0.000009	-0.000001	0.000000	0.000000
34.956699	16.212744	19.043255	1.965801	-2.085201	2.498694	0.000000	-0.281670	0.000000	0.000008	-0.000001	0.000000	0.000000
35.397659	14.709631	20.706048	1.455861	-1.671298	2.389873	0.000000	-0.212367	0.000000	0.000008	-0.000001	0.000000	0.000000
35.838619	13.625324	21.968759	1.012435	-1.181353	2.311050	0.000000	-0.145483	0.000000	0.000007	-0.000001	0.000000	0.000000
36.279579	12.910285	22.773934	0.615265	-0.637658	2.261326	0.000000	-0.080257	0.000000	0.000007	-0.000001	0.000000	0.000000
36.721789	12.531155	23.085243	0.276827	-0.121611	2.240109	0.000000	-0.021437	0.000000	0.000007	-0.000000	0.000000	0.000000
37.019112	12.374136	23.161444	0.251282	-0.134681	2.233736	0.000000	-0.021437	0.000000	0.000007	-0.000000	0.000000	0.000000
37.352445	12.216161	23.256116	0.222643	-0.149334	2.226590	0.000000	-0.021437	0.000000	0.000007	-0.000000	0.000000	0.000000
37.685779	12.077278	23.360556	0.194005	-0.163987	2.219444	0.000000	-0.021437	0.000000	0.000006	-0.000000	0.000000	0.000000
38.020362	11.957075	23.475212	0.165258	-0.178694	2.212272	0.000000	-0.021437	0.000000	0.000006	-0.000000	0.000000	0.000000
38.317684	11.866400	23.585358	0.168812	-0.249599	2.205899	0.000000	-0.026846	0.000000	0.000006	-0.000000	0.000000	0.000000
38.758644	11.868843	23.544257	-0.174373	0.342451	2.207989	0.000000	0.036338	0.000000	0.000006	-0.000000	0.000000	0.000000
39.199604	12.176303	22.985919	-0.525524	0.918920	2.238006	0.000000	0.099935	0.000000	0.000006	-0.000000	0.000000	0.000000
39.640564	12.802826	21.935745	-0.900684	1.453578	2.296291	0.000000	0.164671	0.000000	0.000006	0.000000	0.000000	0.000000
40.081524	13.777038	20.441520	-1.316994	1.922101	2.383508	0.000000	0.231283	0.000000	0.000006	0.000000	0.000000	0.000000
40.527484	15.161017	18.548660	-1.797300	2.304449	2.502122	0.000000	0.300933	0.000000	0.000006	0.000000	0.000000	0.000000
41.076544	16.927254	16.421613	-1.400496	1.592397	2.646821	0.000000	0.225368	0.000000	0.000006	0.000000	0.000000	0.000000
41.625604	18.200521	15.009987	-0.904769	0.993767	2.748869	0.000000	0.145805	0.000000	0.000006	-0.000000	0.000000	0.000000
42.174664	18.890878	14.213233	-0.345133	0.465921	2.806457	0.000000	0.063656	0.000000	0.000006	-0.000000	0.000000	0.000000
42.723724	18.949564	13.974603	0.238881	-0.028739	2.818563	0.000000	-0.019623	0.000000	0.000006	-0.000000	0.000000	0.000000
43.022297	18.841355	13.976341	0.173051	-0.013594	2.814903	0.000000	-0.012259	0.000000	0.000006	-0.000000	0.000000	0.000000
43.502297	18.687821	14.005879	0.146812	-0.047944	2.809020	0.000000	-0.012259	0.000000	0.000005	-0.000000	0.000000	0.000000
43.982297	18.559476	14.068393	0.120573	-0.082294	2.803136	0.000000	-0.012259	0.000000	0.000005	-0.000000	0.000000	0.000000
44.462297	18.456321	14.163884	0.094334	-0.116644	2.797252	0.000000	-0.012259	0.000000	0.000005	-0.000000	0.000000	0.000000
44.942297	18.378354	14.292350	0.068095	-0.150994	2.791368	0.000000	-0.012259	0.000000	0.000005	-0.000000	0.000000	0.000000
45.423547	18.325700	14.454078	-0.049007	-0.113820	2.785486	0.000000	0.001542	0.000000	0.000005	-0.000000	0.000000	0.000000
45.720870	18.359677	14.527955	-0.113239	-0.096699	2.785945	0.000000	0.008821	0.000000	0.000004	-0.000000	0.000000	0.000000
46.269930	18.174882	14.915165	0.447813	-0.612688	2.768215	0.000000	-0.073309	0.000000	0.000004	-0.000001	0.000000	0.000000
46.818990	17.387786	15.889490	0.977234	-1.172318	2.705682	0.000000	-0.154139	0.000000	0.000004	-0.000001	0.000000	0.000000
47.368050	16.053986	17.520327	1.437628	-1.815449	2.599455	0.000000	-0.232235	0.000000	0.000003	-0.000001	0.000000	0.000000
47.917110	14.267694	19.923838	1.796475	-2.587891	2.451417	0.000000	-0.306212	0.000000	0.000003	-0.000001	0.000000	0.000000
48.363070	12.877549	22.060821	1.331767	-2.183835	2.330152	0.000000	-0.237911	0.000000	0.000003	-0.000001	0.000000	0.000000
48.804030	11.883235	23.771873	0.931671	-1.681688	2.239703	0.000000	-0.172716	0.000000	0.000002	-0.000001	0.000000	0.000000
49.244990	11.221741	25.004511	0.574141	-1.103025	2.177542	0.000000	-0.109489	0.000000	0.000002	-0.000001	0.000000	0.000000
49.685950	10.862846	25.702650	0.242842	-0.474176	2.142960	0.000000	-0.047509	0.000000	0.000002	-0.000001	0.000000	0.000000
50.128160	10.790279	25.834244	-0.051018	0.112847	2.135575	0.000000	0.008693	0.000000	0.000001	-0.000001	0.000000	0.000000
50.425482	10.828831	25.770605	-0.078645	0.101191	2.138160	0.000000	0.008693	0.000000	0.000001	-0.000001	0.000000	0.000000
50.758816	10.891585	25.707500	-0.109617	0.088124	2.141058	0.000000	0.008693	0.000000	0.000001	-0.000001	0.000000	0.000000
51.092149	10.974987	25.653106	-0.140590	0.075057	2.143955	0.000000	0.008693	0.000000	0.000001	-0.000001	0.000000	0.000000
51.426732	11.079242	25.607788	-0.081796	-0.145802	2.146842	0.000000	-0.008724	0.000000	0.000000	-0.000001	0.000000	0.000000
51.724055	11.135914	25.698014	-0.081503	-0.220678	2.144249	0.000000	-0.013982	0.000000	0.000000	-0.000001	0.000000	0.000000
52.165015	11.353175	25.606751	-0.413067	0.426855	2.151672	0.000000	0.047681	0.000000	-0.000000	-0.000001	0.000000	0.000000
52.605975	11.870034	24.950830	-0.763502	1.054968	2.186380	0.000000	0.109888	0.000000	-0.000000	-0.000001	0.000000	0.000000
53.046935	12.710104	23.760096	-1.148820	1.635080	2.248768	0.000000	0.173346	0.000000	-0.000001	-0.000001	0.000000	0.000000
53.487895	13.911766	22.088725	-1.586624	2.140797	2.339547	0.000000	0.238778	0.000000	-0.000001	-0.000001	0.000000	0.000000
53.933855	15.550518	19.987773	-2.101149	2.550445	2.461255	0.000000	0.307328	0.000000	-0.000001	-0.000001	0.000000	0.000000
54.482915	17.660333	17.623713	-1.718700	1.780619	2.609817	0.000000	0.233024	0.000000	-0.000002	-0.000001	0.000000	0.000000
55.031975	19.280619	16.030826	-1.214850	1.137622	2.716385	0.000000	0.154587	0.000000	-0.000002	-0.000001	0.000000	0.000000
55.581035	20.296928	15.095655	-0.625190	0.575655	2.779069	0.000000	0.073408	0.000000	-0.000002	-0.000001	0.000000	0.000000
56.130095	20.637471	14.751588	0.008631	0.054691	2.796757	0.000000	-0.009074	0.000000	-0.000003	-0.000000	0.000000	0.000000
56.428668	20.668846	14.702009	-0.059789	0.072819	2.796230	0.000000	-0.001766	0.000000	-0.000003	-0.000000	0.000000	0.000000
56.762001	20.714100	14.661061	-0.075974	0.050026	2.795641	0.000000	-0.001766	0.000000	-0.000003	-0.000000	0.000000	0.000000
57.095334	20.770145	14.635308	-0.092159	0.027233	2.795053	0.000000	-0.001766	0.000000	-0.000003	-0.000000	0.000000	0.000000
57.429918	20.837250	14.624739	-0.108405	0.004355	2.794462	0.000000	-0.001766	0.000000	-0.000003	-0.000000	0.000000	0.000000
57.727240	20.906005	14.628194	-0.177466	0.022246	2.793937	0.000000	0.005534	0.000000	-0.000003	-0.000000	0.000000	0.000000
58.276300	20.744195	14.884700	0.470425	-0.492176	2.774337	0.000000	-0.076825	0.000000	-0.000004	-0.000000	0.000000	0.000000
58.825360	19.885040	15.721924	1.085088	-1.041656	2.709825	0.000000	-0.157821	0.000000	-0.000004	-0.000000	0.000000	0.000000
59.374420	18.389225	17.199499	1.623105	-1.665330	2.601545	0.000000	-0.236018	0.000000	-0.000004	-0.000000	0.000000	0.000000
59.923480	16.362407	19.422671	2.046475	-2.407621	2.451418	0.000000	-0.310029	0.000000	-0.000004	-0.000000	0.000000	0.000000
60.369440	14.775991	21.398681	1.523429	-2.004590	2.328447	0.000000	-0.241750	0.000000	-0.000004	-0.000000	0.000000	0.000000
60.810400	13.634873	22.955157	1.074191	-1.511723	2.236293	0.000000	-0.176621	0.000000	-0.000004	-0.000000	0.000000	0.000000
61.251360	12.866891	24.044858	0.674031	-0.950075	2.172387	0.000000	-0.113505	0.000000	-0.000004	-0.000000	0.000000	0.000000
61.692320	12.436956	24.618204	0.304665	-0.345199	2.136001	0.000000	-0.051681	0.000000	-0.000004	-0.000000	0.000000	0.000000
62.134530	12.325479	24.648570	-0.020657	0.214882	2.126728	0.000000	0.004339	0.000000	-0.000004	-0.000001	0.000000	0.000000
62.431853	12.344937	24.524544	-0.044789	0.202262	2.128018	0.000000	0.004339	0.000000	-0.000005	-0.000001	0.000000	0.000000
62.765186	12.383815	24.394418	-0.071845	0.188114	2.129465	0.000000	0.004339	0.000000	-0.000005	-0.000001	0.000000	0.000000
63.098520	12.440731	24.273725	-0.098901	0.173966	2.130911	0.000000	0.004339	0.000000	-0.000005	-0.000001	0.000000	0.000000
63.433103	12.515998	24.162063	-0.126058	0.159765	2.132363	0.000000	0.004339	0.000000	-0.000005	-0.000001	0.000000	0.000000
63.730426	12.598134	24.070812	-0.119295	0.088114	2.133653	0.000000	-0.000894	0.000000	-0.000005	-0.000001	0.000000	0.000000
64.171386	12.863749	23.728002	-0.485346	0.686345	2.146799	0.000000	0.060570	0.000000	-0.000006	-0.000001	0.000000	0.000000
64.612346	13.460712	22.869407	-0.873571	1.253348	2.187173	0.000000	0.122724	0.000000	-0.000006	-0.000001	0.000000	0.000000
65.053306	14.416298	21.534094	-1.301707	1.763325	2.255237	0.000000	0.186276	0.000000	-0.000006	-0.000001	0.000000	0.000000
65.494266	15.774163	19.782818	-1.789315	2.193071	2.351765	0.000000	0.251949	0.000000	-0.000007	-0.000001	0.000000	0.000000
65.940226	17.619510	17.670474	-2.363363	2.523791	2.479430	0.000000	0.320893	0.000000	-0.000007	-0.000001	0.000000	0.000000
66.489286	19.984988	15.307377	-1.919369	1.805510	2.635256	0.000000	0.245883	0.000000	-0.000008	-0.000001	0.000000	0.000000
67.038346	21.785123	13.658214	-1.339800	1.215831	2.748638	0.000000	0.166511	0.000000	-0.000008	-0.000001	0.000000	0.000000
67.587406	22.892761	12.605520	-0.665594	0.712754	2.817564	0.000000	0.084185	0.000000	-0.000009	-0.000001	0.000000	0.000000
68.136466	23.229664	12.074312	0.055626	0.260444	2.840810	0.000000	0.000367	0.000000	-0.000009	-0.000000	0.000000	0.000000
68.435038	23.236532	11.907961	-0.017927	0.265158	2.843136	0.000000	0.007790	0.000000	-0.000009	-0.000000	0.000000	0.000000
68.768372	23.253266	11.741176	-0.032277	0.235197	2.845733	0.000000	0.007790	0.000000	-0.000009	-0.000000	0.000000	0.000000
69.101705	23.279567	11.594365	-0.046627	0.205237	2.848329	0.000000	0.007790	0.000000	-0.000009	-0.000000	0.000000	0.000000
69.436288	23.315588	11.467089	-0.061030	0.175164	2.850936	0.000000	0.007790	0.000000	-0.000009	-0.000000	0.000000	0.000000
69.733611	23.355685	11.370874	-0.134859	0.178152	2.853252	0.000000	0.015245	0.000000	-0.000009	-0.000000	0.000000	0.000000
70.282671	23.102660	11.402922	0.592964	-0.236865	2.838442	0.000000	-0.069113	0.000000	-0.000009	0.000000	0.000000	0.000000
