#ParticleID	Turn	x[m]	xp	y[m]	yp	z[m]	dE[GeV]# s	beta_x	beta_y	alpha_x	alpha_y	D_x	D_y	D_px	D_py	orbit_x	orbit_px	orbit_y	orbit_py
0.300000	11.816792	25.006748	-0.011343	-0.027406	2.618048	0.000000	0.000038	0.000000	-0.000001	0.000001	0.000000	0.000000
0.601250	11.831307	25.026892	-0.036840	-0.039462	2.618060	0.000000	0.000038	0.000000	-0.000001	0.000001	0.000000	0.000000
0.898573	11.860696	25.053896	-0.032918	-0.112801	2.618071	0.000000	-0.006382	0.000000	-0.000001	0.000001	0.000000	0.000000
1.339533	12.041892	24.875468	-0.379554	0.515896	2.631549	0.000000	0.067574	0.000000	-0.000000	0.000001	0.000000	0.000000
1.780493	12.535255	24.150852	-0.743530	1.121120	2.677778	0.000000	0.142300	0.000000	0.000000	0.000001	0.000000	0.000000
2.221453	13.363327	22.913017	-1.141476	1.675334	2.757284	0.000000	0.218647	0.000000	0.000000	0.000001	0.000000	0.000000
2.662413	14.563937	21.218284	-1.591573	2.153321	2.870972	0.000000	0.297484	0.000000	0.000001	0.000001	0.000000	0.000000
3.108373	16.212696	19.118907	-2.118676	2.534467	3.021998	0.000000	0.380199	0.000000	0.000001	0.000001	0.000000	0.000000
3.657433	18.326943	16.761016	-1.709196	1.785297	3.205478	0.000000	0.287160	0.000000	0.000002	0.000001	0.000000	0.000000
4.206493	19.922171	15.151564	-1.178986	1.163291	3.336398	0.000000	0.189028	0.000000	0.000002	0.000001	0.000000	0.000000
4.755553	20.885702	14.175914	-0.565499	0.624143	3.412437	0.000000	0.087544	0.000000	0.000003	0.000001	0.000000	0.000000
5.304613	21.149477	13.764574	0.087932	0.129452	3.432245	0.000000	-0.015494	0.000000	0.000003	0.000001	0.000000	0.000000
5.603185	21.134185	13.672451	0.018542	0.143130	3.430297	0.000000	-0.006526	0.000000	0.000003	0.000001	0.000000	0.000000
5.936519	21.127083	13.585324	0.002764	0.118250	3.428121	0.000000	-0.006526	0.000000	0.000004	0.000001	0.000000	0.000000
6.269852	21.130500	13.514784	-0.013014	0.093371	3.425945	0.000000	-0.006526	0.000000	0.000004	0.000001	0.000000	0.000000
6.604435	21.144507	13.460658	-0.028850	0.068398	3.423761	0.000000	-0.006526	0.000000	0.000004	0.000001	0.000000	0.000000
6.901758	21.165847	13.426584	-0.098224	0.081287	3.421821	0.000000	0.002414	0.000000	0.000004	0.000001	0.000000	0.000000
7.450818	20.912968	13.598086	0.556065	-0.395486	3.394944	0.000000	-0.100171	0.000000	0.000005	0.000001	0.000000	0.000000
7.999878	19.959017	14.305446	1.171076	-0.900429	3.312146	0.000000	-0.200980	0.000000	0.000005	0.000000	0.000000	0.000000
8.548938	18.371376	15.599047	1.703369	-1.469507	3.174898	0.000000	-0.298223	0.000000	0.000005	0.000000	0.000000	0.000000
9.097998	16.262188	17.571031	2.115344	-2.143255	2.985633	0.000000	-0.390177	0.000000	0.000005	0.000000	0.000000	0.000000
9.543958	14.616620	19.328177	1.587721	-1.780234	2.829937	0.000000	-0.308467	0.000000	0.000005	0.000000	0.000000	0.000000
9.984918	13.419700	20.708201	1.136927	-1.337447	2.711162	0.000000	-0.230753	0.000000	0.000006	0.000000	0.000000	0.000000
10.425878	12.596023	21.669294	0.738076	-0.833806	2.626045	0.000000	-0.155668	0.000000	0.000006	0.000001	0.000000	0.000000
10.866838	12.107959	22.167727	0.372946	-0.292228	2.573616	0.000000	-0.082355	0.000000	0.000006	0.000001	0.000000	0.000000
11.309048	11.933073	22.180301	0.054011	0.208196	2.553256	0.000000	-0.016242	0.000000	0.000006	0.000001	0.000000	0.000000
11.606371	11.908385	22.060657	0.029022	0.194210	2.548427	0.000000	-0.016242	0.000000	0.000007	0.000001	0.000000	0.000000
12.086371	11.899888	21.885053	-0.011319	0.171631	2.540630	0.000000	-0.016242	0.000000	0.000007	0.000001	0.000000	0.000000
12.566371	11.930119	21.731124	-0.051661	0.149052	2.532833	0.000000	-0.016242	0.000000	0.000007	0.000001	0.000000	0.000000
13.046371	11.999077	21.598872	-0.092003	0.126474	2.525037	0.000000	-0.016242	0.000000	0.000008	0.000001	0.000000	0.000000
13.526371	12.106764	21.488295	-0.132344	0.103895	2.517240	0.000000	-0.016242	0.000000	0.000008	0.000001	0.000000	0.000000
14.007621	12.253610	21.399191	-0.172791	0.081257	2.509423	0.000000	-0.016242	0.000000	0.000008	0.000001	0.000000	0.000000
14.304943	12.363790	21.355030	-0.167463	0.014907	2.504594	0.000000	-0.022384	0.000000	0.000009	0.000001	0.000000	0.000000
14.745903	12.670047	21.108146	-0.529695	0.542840	2.510357	0.000000	0.048548	0.000000	0.000009	0.000001	0.000000	0.000000
15.186863	13.305188	20.404823	-0.916128	1.046074	2.547490	0.000000	0.120032	0.000000	0.000010	0.000001	0.000000	0.000000
15.627823	14.298231	19.277060	-1.344417	1.501712	2.616415	0.000000	0.192884	0.000000	0.000010	0.000002	0.000000	0.000000
16.068783	15.694545	17.776169	-1.834128	1.889024	2.717919	0.000000	0.267932	0.000000	0.000011	0.000002	0.000000	0.000000
16.514743	17.581580	15.948937	-2.412392	2.191132	2.854851	0.000000	0.346495	0.000000	0.000012	0.000002	0.000000	0.000000
17.063803	20.005166	13.908637	-1.975542	1.546791	3.021362	0.000000	0.259147	0.000000	0.000013	0.000002	0.000000	0.000000
17.612863	21.869109	12.511610	-1.399149	1.012624	3.138580	0.000000	0.167202	0.000000	0.000014	0.000001	0.000000	0.000000
18.161923	23.041748	11.658351	-0.723928	0.550585	3.204424	0.000000	0.072292	0.000000	0.000014	0.000001	0.000000	0.000000
18.710983	23.440254	11.288083	0.002429	0.127763	3.217729	0.000000	-0.023900	0.000000	0.000015	0.000000	0.000000	0.000000
19.009556	23.479187	11.202272	-0.071591	0.130148	3.213103	0.000000	-0.015494	0.000000	0.000015	0.000000	0.000000	0.000000
19.342889	23.531671	11.125594	-0.085860	0.099888	3.207938	0.000000	-0.015494	0.000000	0.000015	0.000000	0.000000	0.000000
19.676223	23.593668	11.069088	-0.100130	0.069628	3.202773	0.000000	-0.015494	0.000000	0.000015	0.000000	0.000000	0.000000
20.010806	23.665757	11.032521	-0.231707	0.093917	3.197609	0.000000	0.000349	0.000000	0.000015	0.000000	0.000000	0.000000
20.308129	23.807476	10.984757	-0.307141	0.095427	3.197713	0.000000	0.008703	0.000000	0.000015	0.000000	0.000000	0.000000
20.857189	23.734136	11.102188	0.439925	-0.310567	3.176266	0.000000	-0.086709	0.000000	0.000015	-0.000000	0.000000	0.000000
21.406249	22.852705	11.674909	1.155917	-0.738683	3.102778	0.000000	-0.180583	0.000000	0.000015	-0.000001	0.000000	0.000000
21.955309	21.225444	12.743713	1.790260	-1.219413	2.978553	0.000000	-0.271254	0.000000	0.000015	-0.000001	0.000000	0.000000
22.504369	18.967294	14.384728	2.298149	-1.787000	2.805794	0.000000	-0.357113	0.000000	0.000014	-0.000001	0.000000	0.000000
22.950329	17.187681	15.858033	1.706457	-1.502733	2.663833	0.000000	-0.279889	0.000000	0.000013	-0.000001	0.000000	0.000000
23.391289	15.912024	17.032670	1.197426	-1.150948	2.556739	0.000000	-0.206307	0.000000	0.000013	-0.000001	0.000000	0.000000
23.832249	15.059563	17.872696	0.743101	-0.746796	2.481543	0.000000	-0.135075	0.000000	0.000013	-0.000000	0.000000	0.000000
24.273209	14.591352	18.339890	0.322726	-0.308665	2.437389	0.000000	-0.065381	0.000000	0.000013	-0.000000	0.000000	0.000000
24.715418	14.486118	18.412749	-0.047471	0.098293	2.423771	0.000000	-0.002375	0.000000	0.000013	0.000000	0.000000	0.000000
25.012741	14.520462	18.359147	-0.068041	0.081989	2.423065	0.000000	-0.002375	0.000000	0.000013	0.000000	0.000000	0.000000
25.346075	14.573511	18.310581	-0.091104	0.063711	2.422273	0.000000	-0.002375	0.000000	0.000013	0.000000	0.000000	0.000000
25.679408	14.641934	18.274200	-0.114166	0.045432	2.421481	0.000000	-0.002375	0.000000	0.000013	0.000000	0.000000	0.000000
26.013991	14.725777	18.250307	-0.017850	-0.120970	2.420662	0.000000	-0.022013	0.000000	0.000013	0.000000	0.000000	0.000000
26.311314	14.742396	18.327155	-0.001899	-0.182438	2.414117	0.000000	-0.027932	0.000000	0.000013	0.000000	0.000000	0.000000
26.752274	14.925708	18.289282	-0.415388	0.268000	2.416914	0.000000	0.040629	0.000000	0.000013	0.000000	0.000000	0.000000
27.193234	15.480643	17.858037	-0.847856	0.706245	2.450016	0.000000	0.109652	0.000000	0.000013	0.000001	0.000000	0.000000
27.634194	16.432555	17.053044	-1.319059	1.112355	2.513801	0.000000	0.179925	0.000000	0.000014	0.000001	0.000000	0.000000
28.075154	17.824934	15.910928	-1.850527	1.467855	2.608995	0.000000	0.252246	0.000000	0.000014	0.000001	0.000000	0.000000
28.521114	19.745585	14.466452	-2.471506	1.757480	2.738286	0.000000	0.327884	0.000000	0.000015	0.000002	0.000000	0.000000
29.070174	22.186748	12.856999	-1.948250	1.191109	2.895643	0.000000	0.244462	0.000000	0.000016	0.000001	0.000000	0.000000
29.619234	23.973882	11.819531	-1.287379	0.709579	3.005937	0.000000	0.156703	0.000000	0.000017	0.000001	0.000000	0.000000
30.168294	24.980753	11.280151	-0.535574	0.278590	3.067210	0.000000	0.066165	0.000000	0.000017	0.000000	0.000000	0.000000
30.717354	25.136240	11.200440	0.254061	-0.132556	3.078378	0.000000	-0.025547	0.000000	0.000017	-0.000000	0.000000	0.000000
31.015927	25.027414	11.270167	0.176095	-0.130237	3.073151	0.000000	-0.017505	0.000000	0.000017	-0.000000	0.000000	0.000000
31.349260	24.914595	11.367018	0.162363	-0.160315	3.067316	0.000000	-0.017505	0.000000	0.000017	-0.000000	0.000000	0.000000
31.682593	24.810930	11.483920	0.148631	-0.190394	3.061481	0.000000	-0.017505	0.000000	0.000017	-0.000000	0.000000	0.000000
32.017177	24.716082	11.621427	0.134848	-0.220585	3.055625	0.000000	-0.017505	0.000000	0.000017	-0.000000	0.000000	0.000000
32.314499	24.639537	11.760573	0.058230	-0.216690	3.050420	0.000000	-0.009536	0.000000	0.000017	-0.000000	0.000000	0.000000
32.863559	24.153449	12.237756	0.821839	-0.657531	3.020296	0.000000	-0.100035	0.000000	0.000016	-0.000001	0.000000	0.000000
33.412619	22.855895	13.221759	1.527397	-1.145206	2.940897	0.000000	-0.188759	0.000000	0.000016	-0.000001	0.000000	0.000000
33.961679	20.838530	14.782670	2.125068	-1.714452	2.813631	0.000000	-0.274136	0.000000	0.000015	-0.000002	0.000000	0.000000
34.510739	18.243849	17.031669	2.572634	-2.405815	2.640758	0.000000	-0.354650	0.000000	0.000014	-0.000002	0.000000	0.000000
34.956699	16.226395	19.043306	1.967417	-2.086153	2.498944	0.000000	-0.281704	0.000000	0.000013	-0.000002	0.000000	0.000000
35.397659	14.722028	20.706973	1.457097	-1.672319	2.390109	0.000000	-0.212396	0.000000	0.000012	-0.000002	0.000000	0.000000
35.838619	13.636777	21.970597	1.013348	-1.182395	2.311275	0.000000	-0.145506	0.000000	0.000012	-0.000001	0.000000	0.000000
36.279579	12.921061	22.776683	0.615896	-0.638674	2.261543	0.000000	-0.080274	0.000000	0.000011	-0.000001	0.000000	0.000000
36.721789	12.541486	23.088862	0.277229	-0.122562	2.240320	0.000000	-0.021449	0.000000	0.000011	-0.000001	0.000000	0.000000
37.019112	12.384223	23.165630	0.251700	-0.135633	2.233943	0.000000	-0.021449	0.000000	0.000011	-0.000001	0.000000	0.000000
37.352445	12.225964	23.260936	0.223079	-0.150287	2.226793	0.000000	-0.021449	0.000000	0.000010	-0.000001	0.000000	0.000000
37.685779	12.086785	23.366012	0.194458	-0.164941	2.219644	0.000000	-0.021449	0.000000	0.000010	-0.000001	0.000000	0.000000
38.020362	11.966272	23.481306	0.165729	-0.179649	2.212468	0.000000	-0.021449	0.000000	0.000010	-0.000001	0.000000	0.000000
38.317684	11.875312	23.592020	0.169319	-0.250570	2.206091	0.000000	-0.026858	0.000000	0.000010	-0.000001	0.000000	0.000000
38.758644	11.877396	23.551694	-0.174063	0.341670	2.208177	0.000000	0.036330	0.000000	0.000009	-0.000000	0.000000	0.000000
39.199604	12.184664	22.993947	-0.525397	0.918365	2.238192	0.000000	0.099933	0.000000	0.000009	-0.000000	0.000000	0.000000
39.640564	12.811154	21.944154	-0.900735	1.453274	2.296477	0.000000	0.164674	0.000000	0.000009	0.000000	0.000000	0.000000
40.081524	13.785490	20.450081	-1.317226	1.922061	2.383696	0.000000	0.231290	0.000000	0.000009	0.000000	0.000000	0.000000
40.527484	15.169760	18.557136	-1.797723	2.304677	2.502315	0.000000	0.300946	0.000000	0.000010	0.000001	0.000000	0.000000
41.076544	16.936284	16.429957	-1.400592	1.592411	2.647018	0.000000	0.225374	0.000000	0.000010	0.000000	0.000000	0.000000
41.625604	18.209472	15.018430	-0.904530	0.993569	2.749068	0.000000	0.145805	0.000000	0.000010	-0.000000	0.000000	0.000000
42.174664	18.899391	14.222017	-0.344577	0.465496	2.806654	0.000000	0.063649	0.000000	0.000010	-0.000000	0.000000	0.000000
42.723724	18.957309	13.983990	0.239715	-0.029420	2.818755	0.000000	-0.019636	0.000000	0.000009	-0.000001	0.000000	0.000000
43.022297	18.848613	13.986116	0.173867	-0.014237	2.815092	0.000000	-0.012271	0.000000	0.000009	-0.000001	0.000000	0.000000
43.502297	18.694293	14.016261	0.147632	-0.048564	2.809202	0.000000	-0.012271	0.000000	0.000009	-0.000001	0.000000	0.000000
43.982297	18.565160	14.079359	0.121396	-0.082891	2.803312	0.000000	-0.012271	0.000000	0.000008	-0.000001	0.000000	0.000000
44.462297	18.461214	14.175411	0.095160	-0.117217	2.797422	0.000000	-0.012271	0.000000	0.000008	-0.000001	0.000000	0.000000
44.942297	18.382453	14.304417	0.068924	-0.151544	2.791532	0.000000	-0.012271	0.000000	0.000008	-0.000001	0.000000	0.000000
45.423547	18.329000	14.466661	-0.048192	-0.114283	2.785644	0.000000	0.001530	0.000000	0.000007	-0.000001	0.000000	0.000000
45.720870	18.362492	14.540810	-0.112426	-0.097114	2.786099	0.000000	0.008809	0.000000	0.000007	-0.000001	0.000000	0.000000
46.269930	18.176759	14.928694	0.448697	-0.613507	2.768362	0.000000	-0.073326	0.000000	0.000007	-0.000001	0.000000	0.000000
46.818990	17.388681	15.904163	0.978127	-1.173598	2.705818	0.000000	-0.154160	0.000000	0.000006	-0.000001	0.000000	0.000000
47.368050	16.053925	17.536699	1.438467	-1.817282	2.599578	0.000000	-0.232261	0.000000	0.000006	-0.000001	0.000000	0.000000
47.917110	14.266769	19.942584	1.797201	-2.590407	2.451526	0.000000	-0.306241	0.000000	0.000005	-0.000001	0.000000	0.000000
48.363070	12.876001	22.081634	1.332442	-2.185936	2.330249	0.000000	-0.237937	0.000000	0.000004	-0.000001	0.000000	0.000000
48.804030	11.881101	23.794321	0.932329	-1.683280	2.239789	0.000000	-0.172741	0.000000	0.000004	-0.000001	0.000000	0.000000
49.244990	11.219024	25.028112	0.574811	-1.104036	2.177618	0.000000	-0.109512	0.000000	0.000003	-0.000001	0.000000	0.000000
49.685950	10.859521	25.726869	0.243554	-0.474560	2.143027	0.000000	-0.047530	0.000000	0.000003	-0.000001	0.000000	0.000000
50.128160	10.786294	25.858517	-0.050241	0.113048	2.135633	0.000000	0.008674	0.000000	0.000002	-0.000001	0.000000	0.000000
50.425482	10.824386	25.794755	-0.077875	0.101403	2.138212	0.000000	0.008674	0.000000	0.000002	-0.000001	0.000000	0.000000
50.758816	10.886629	25.731505	-0.108857	0.088348	2.141104	0.000000	0.008674	0.000000	0.000002	-0.000001	0.000000	0.000000
51.092149	10.969528	25.676958	-0.139838	0.075292	2.143995	0.000000	0.008674	0.000000	0.000001	-0.000001	0.000000	0.000000
51.426732	11.073283	25.631479	-0.081102	-0.145747	2.146876	0.000000	-0.008743	0.000000	0.000001	-0.000001	0.000000	0.000000
51.724055	11.129545	25.721669	-0.080836	-0.220670	2.144277	0.000000	-0.014001	0.000000	0.000001	-0.000001	0.000000	0.000000
52.165015	11.346149	25.630123	-0.412238	0.427488	2.151692	0.000000	0.047663	0.000000	0.000000	-0.000001	0.000000	0.000000
52.605975	11.862192	24.973379	-0.762473	1.056195	2.186392	0.000000	0.109870	0.000000	-0.000000	-0.000001	0.000000	0.000000
53.046935	12.701249	23.781319	-1.147543	1.636847	2.248773	0.000000	0.173328	0.000000	-0.000001	-0.000001	0.000000	0.000000
53.487895	13.901656	22.108180	-1.585042	2.143023	2.339544	0.000000	0.238760	0.000000	-0.000001	-0.000001	0.000000	0.000000
53.933855	15.538832	20.005073	-2.099187	2.553031	2.461244	0.000000	0.307310	0.000000	-0.000002	-0.000001	0.000000	0.000000
54.482915	17.646643	17.638551	-1.717034	1.782546	2.609796	0.000000	0.233007	0.000000	-0.000002	-0.000001	0.000000	0.000000
55.031975	19.265319	16.043845	-1.213600	1.139028	2.716355	0.000000	0.154570	0.000000	-0.000003	-0.000001	0.000000	0.000000
55.581035	20.280524	15.107368	-0.624442	0.576640	2.779030	0.000000	0.073392	0.000000	-0.000003	-0.000001	0.000000	0.000000
56.130095	20.620548	14.762418	0.008822	0.055325	2.796710	0.000000	-0.009088	0.000000	-0.000004	-0.000001	0.000000	0.000000
56.428668	20.651786	14.712440	-0.059566	0.073494	2.796179	0.000000	-0.001780	0.000000	-0.000004	-0.000001	0.000000	0.000000
56.762001	20.696896	14.671036	-0.075764	0.050715	2.795586	0.000000	-0.001780	0.000000	-0.000004	-0.000001	0.000000	0.000000
57.095334	20.752804	14.644819	-0.091962	0.027936	2.794993	0.000000	-0.001780	0.000000	-0.000004	-0.000001	0.000000	0.000000
57.429918	20.819782	14.633775	-0.108220	0.005072	2.794397	0.000000	-0.001780	0.000000	-0.000005	-0.000001	0.000000	0.000000
57.727240	20.888430	14.636800	-0.177248	0.022998	2.793868	0.000000	0.005520	0.000000	-0.000005	-0.000001	0.000000	0.000000
58.276300	20.726705	14.892612	0.470053	-0.491657	2.774261	0.000000	-0.076837	0.000000	-0.000005	-0.000001	0.000000	0.000000
58.825360	19.868271	15.729376	1.084152	-1.041332	2.709743	0.000000	-0.157830	0.000000	-0.000006	-0.000000	0.000000	0.000000
59.374420	18.373765	17.206692	1.621672	-1.665179	2.601459	0.000000	-0.236025	0.000000	-0.000006	-0.000000	0.000000	0.000000
59.923480	16.348750	19.429788	2.044645	-2.407633	2.451329	0.000000	-0.310032	0.000000	-0.000006	-0.000000	0.000000	0.000000
60.369440	14.763782	21.405701	1.522000	-2.004361	2.328356	0.000000	-0.241756	0.000000	-0.000006	-0.000000	0.000000	0.000000
60.810400	13.623773	22.961874	1.073096	-1.511268	2.236198	0.000000	-0.176630	0.000000	-0.000006	-0.000000	0.000000	0.000000
61.251360	12.856628	24.051080	0.673219	-0.949412	2.172288	0.000000	-0.113516	0.000000	-0.000006	-0.000000	0.000000	0.000000
61.692320	12.427299	24.623761	0.304099	-0.344359	2.135897	0.000000	-0.051694	0.000000	-0.000006	-0.000001	0.000000	0.000000
62.134530	12.316223	24.653320	-0.021025	0.215846	2.126617	0.000000	0.004323	0.000000	-0.000007	-0.000001	0.000000	0.000000
62.431853	12.335906	24.528721	-0.045176	0.203224	2.127902	0.000000	0.004323	0.000000	-0.000007	-0.000001	0.000000	0.000000
62.765186	12.375049	24.397954	-0.072253	0.189074	2.129343	0.000000	0.004323	0.000000	-0.000007	-0.000001	0.000000	0.000000
63.098520	12.432243	24.276622	-0.099329	0.174923	2.130785	0.000000	0.004323	0.000000	-0.000008	-0.000001	0.000000	0.000000
63.433103	12.507804	24.164322	-0.126507	0.160719	2.132231	0.000000	0.004323	0.000000	-0.000008	-0.000001	0.000000	0.000000
63.730426	12.590211	24.072504	-0.119781	0.089059	2.133517	0.000000	-0.000910	0.000000	-0.000008	-0.000001	0.000000	0.000000
64.171386	12.856179	23.728848	-0.485664	0.687311	2.146654	0.000000	0.060551	0.000000	-0.000008	-0.000001	0.000000	0.000000
64.612346	13.453354	22.869410	-0.873735	1.254290	2.187019	0.000000	0.122700	0.000000	-0.000009	-0.000001	0.000000	0.000000
65.053306	14.409019	21.533292	-1.301725	1.764200	2.255072	0.000000	0.186248	0.000000	-0.000010	-0.000001	0.000000	0.000000
65.494266	15.766836	19.781288	-1.789187	2.193840	2.351587	0.000000	0.251916	0.000000	-0.000010	-0.000002	0.000000	0.000000
65.940226	17.612001	17.668320	-2.363083	2.524416	2.479236	0.000000	0.320856	0.000000	-0.000011	-0.000002	0.000000	0.000000
66.489286	19.977333	15.304559	-1.919384	1.806101	2.635045	0.000000	0.245852	0.000000	-0.000012	-0.000002	0.000000	0.000000
67.038346	21.777647	13.654748	-1.340110	1.216429	2.748412	0.000000	0.166487	0.000000	-0.000013	-0.000001	0.000000	0.000000
67.587406	22.885778	12.601373	-0.666177	0.713401	2.817327	0.000000	0.084169	0.000000	-0.000013	-0.000001	0.000000	0.000000
68.136466	23.223453	12.069406	0.054811	0.261187	2.840567	0.000000	0.000359	0.000000	-0.000014	-0.000000	0.000000	0.000000
68.435038	23.230800	11.902625	-0.018731	0.265868	2.842891	0.000000	0.007781	0.000000	-0.000014	-0.000000	0.000000	0.000000
68.768372	23.248072	11.735374	-0.033085	0.235884	2.845484	0.000000	0.007781	0.000000	-0.000014	-0.000000	0.000000	0.000000
69.101705	23.274913	11.588113	-0.047439	0.205899	2.848078	0.000000	0.007781	0.000000	-0.000014	-0.000000	0.000000	0.000000
69.436288	23.311478	11.460403	-0.061846	0.175802	2.850682	0.000000	0.007781	0.000000	-0.000014	-0.000000	0.000000	0.000000
69.733611	23.352062	11.363815	-0.135672	0.178752	2.852996	0.000000	0.015237	0.000000	-0.000014	-0.000000	0.000000	0.000000
70.282671	23.099987	11.395093	0.592055	-0.236056	2.838183	0.000000	-0.069113	0.000000	-0.000014	0.000000	0.000000	0.000000
