#ParticleID	Turn	x[m]	xp	y[m]	yp	z[m]	dE[GeV]# s	beta_x	beta_y	alpha_x	alpha_y	D_x	D_y	D_px	D_py	orbit_x	orbit_px	orbit_y	orbit_py
0.300000	11.814240	25.017182	-0.011051	-0.027305	2.618045	0.000000	0.000038	0.000000	0.000000	0.000001	0.000000	0.000000
0.601250	11.828581	25.037263	-0.036553	-0.039355	2.618056	0.000000	0.000038	0.000000	0.000000	0.000001	0.000000	0.000000
0.898573	11.857800	25.064202	-0.032644	-0.112713	2.618067	0.000000	-0.006383	0.000000	0.000001	0.000001	0.000000	0.000000
1.339533	12.038724	24.885576	-0.379206	0.516254	2.631545	0.000000	0.067574	0.000000	0.000001	0.000001	0.000000	0.000000
1.780493	12.531743	24.160530	-0.743094	1.121733	2.677773	0.000000	0.142299	0.000000	0.000002	0.000001	0.000000	0.000000
2.221453	13.359383	22.922053	-1.140931	1.676173	2.757278	0.000000	0.218646	0.000000	0.000002	0.000001	0.000000	0.000000
2.662413	14.559457	21.226494	-1.590895	2.154348	2.870965	0.000000	0.297483	0.000000	0.000003	0.000001	0.000000	0.000000
3.108373	16.207538	19.126135	-2.117831	2.535635	3.021991	0.000000	0.380197	0.000000	0.000004	0.000001	0.000000	0.000000
3.657433	18.320926	16.767123	-1.708484	1.786181	3.205470	0.000000	0.287159	0.000000	0.000004	0.000001	0.000000	0.000000
4.206493	19.915470	15.156827	-1.178458	1.163953	3.336390	0.000000	0.189027	0.000000	0.000005	0.000001	0.000000	0.000000
4.755553	20.878540	14.180550	-0.565192	0.624630	3.412428	0.000000	0.087543	0.000000	0.000006	0.000001	0.000000	0.000000
5.304613	21.142109	13.768754	0.087997	0.129799	3.432236	0.000000	-0.015494	0.000000	0.000006	0.000001	0.000000	0.000000
5.603185	21.126769	13.676416	0.018622	0.143492	3.430287	0.000000	-0.006527	0.000000	0.000006	0.000001	0.000000	0.000000
5.936519	21.119615	13.589046	0.002838	0.118617	3.428111	0.000000	-0.006527	0.000000	0.000007	0.000001	0.000000	0.000000
6.269852	21.122984	13.518260	-0.012945	0.093742	3.425935	0.000000	-0.006527	0.000000	0.000007	0.000001	0.000000	0.000000
6.604435	21.136947	13.463885	-0.028787	0.068774	3.423751	0.000000	-0.006527	0.000000	0.000007	0.000001	0.000000	0.000000
6.901758	21.158251	13.429586	-0.098145	0.081674	3.421810	0.000000	0.002413	0.000000	0.000007	0.000001	0.000000	0.000000
7.450818	20.905425	13.600707	0.555890	-0.395177	3.394933	0.000000	-0.100172	0.000000	0.000008	0.000001	0.000000	0.000000
7.999878	19.951801	14.307760	1.170659	-0.900175	3.312135	0.000000	-0.200980	0.000000	0.000008	0.000000	0.000000	0.000000
8.548938	18.364738	15.601104	1.702739	-1.469291	3.174887	0.000000	-0.298223	0.000000	0.000008	0.000000	0.000000	0.000000
9.097998	16.256339	17.572863	2.114545	-2.143061	2.985622	0.000000	-0.390177	0.000000	0.000008	-0.000000	0.000000	0.000000
9.543958	14.611403	19.329800	1.587096	-1.779961	2.829926	0.000000	-0.308466	0.000000	0.000008	0.000000	0.000000	0.000000
9.984918	13.414968	20.709553	1.136446	-1.337108	2.711152	0.000000	-0.230753	0.000000	0.000008	0.000000	0.000000	0.000000
10.425878	12.591661	21.670324	0.737716	-0.833417	2.626035	0.000000	-0.155668	0.000000	0.000008	0.000000	0.000000	0.000000
10.866838	12.103867	22.168398	0.372691	-0.291807	2.573605	0.000000	-0.082356	0.000000	0.000008	0.000001	0.000000	0.000000
11.309048	11.929164	22.180592	0.053839	0.208631	2.553245	0.000000	-0.016243	0.000000	0.000009	0.000001	0.000000	0.000000
11.606371	11.904581	22.060690	0.028843	0.194643	2.548416	0.000000	-0.016243	0.000000	0.000009	0.000001	0.000000	0.000000
12.086371	11.896262	21.884672	-0.011511	0.172061	2.540619	0.000000	-0.016243	0.000000	0.000009	0.000001	0.000000	0.000000
12.566371	11.926683	21.730333	-0.051865	0.149478	2.532822	0.000000	-0.016243	0.000000	0.000010	0.000001	0.000000	0.000000
13.046371	11.995844	21.597674	-0.092220	0.126896	2.525025	0.000000	-0.016243	0.000000	0.000010	0.000001	0.000000	0.000000
13.526371	12.103745	21.486694	-0.132574	0.104313	2.517228	0.000000	-0.016243	0.000000	0.000011	0.000001	0.000000	0.000000
14.007621	12.250818	21.397189	-0.173033	0.081672	2.509411	0.000000	-0.016243	0.000000	0.000011	0.000001	0.000000	0.000000
14.304943	12.361143	21.352782	-0.167719	0.015326	2.504582	0.000000	-0.022384	0.000000	0.000011	0.000001	0.000000	0.000000
14.745903	12.667603	21.105558	-0.529900	0.543189	2.510344	0.000000	0.048547	0.000000	0.000012	0.000001	0.000000	0.000000
15.186863	13.302905	20.401963	-0.916291	1.046337	2.547477	0.000000	0.120031	0.000000	0.000012	0.000001	0.000000	0.000000
15.627823	14.296076	19.274009	-1.344544	1.501878	2.616401	0.000000	0.192882	0.000000	0.000013	0.000002	0.000000	0.000000
16.068783	15.692489	17.773018	-1.834226	1.889085	2.717904	0.000000	0.267930	0.000000	0.000014	0.000002	0.000000	0.000000
16.514743	17.579600	15.945780	-2.412465	2.191084	2.854836	0.000000	0.346492	0.000000	0.000015	0.000002	0.000000	0.000000
17.063803	20.003320	13.905494	-1.975710	1.546812	3.021345	0.000000	0.259145	0.000000	0.000016	0.000002	0.000000	0.000000
17.612863	21.867495	12.508406	-1.399401	1.012715	3.138562	0.000000	0.167201	0.000000	0.000017	0.000001	0.000000	0.000000
18.161923	23.040448	11.655006	-0.724245	0.550752	3.204406	0.000000	0.072292	0.000000	0.000017	0.000001	0.000000	0.000000
18.710983	23.439328	11.284507	0.002068	0.128018	3.217710	0.000000	-0.023900	0.000000	0.000018	0.000000	0.000000	0.000000
19.009556	23.478475	11.198553	-0.071948	0.130383	3.213084	0.000000	-0.015494	0.000000	0.000018	0.000000	0.000000	0.000000
19.342889	23.531197	11.121722	-0.086219	0.100112	3.207919	0.000000	-0.015494	0.000000	0.000018	0.000000	0.000000	0.000000
19.676223	23.593433	11.065071	-0.100490	0.069840	3.202755	0.000000	-0.015494	0.000000	0.000018	0.000000	0.000000	0.000000
20.010806	23.665763	11.028366	-0.232067	0.094096	3.197590	0.000000	0.000349	0.000000	0.000018	0.000000	0.000000	0.000000
20.308129	23.807698	10.980499	-0.307503	0.095583	3.197694	0.000000	0.008702	0.000000	0.000018	0.000000	0.000000	0.000000
20.857189	23.734749	11.097694	0.439578	-0.310288	3.176247	0.000000	-0.086709	0.000000	0.000018	-0.000000	0.000000	0.000000
21.406249	22.853679	11.670032	1.155609	-0.738261	3.102760	0.000000	-0.180582	0.000000	0.000018	-0.000001	0.000000	0.000000
21.955309	21.226723	12.738281	1.790014	-1.218818	2.978535	0.000000	-0.271252	0.000000	0.000018	-0.000001	0.000000	0.000000
22.504369	18.968801	14.378529	2.297981	-1.786189	2.805777	0.000000	-0.357111	0.000000	0.000017	-0.000002	0.000000	0.000000
22.950329	17.189343	15.851173	1.706277	-1.502068	2.663817	0.000000	-0.279887	0.000000	0.000016	-0.000001	0.000000	0.000000
23.391289	15.913854	17.025299	1.197223	-1.150458	2.556724	0.000000	-0.206306	0.000000	0.000015	-0.000001	0.000000	0.000000
23.832249	15.061585	17.864979	0.742868	-0.746503	2.481528	0.000000	-0.135074	0.000000	0.000015	-0.000001	0.000000	0.000000
24.273209	14.593597	18.332007	0.322452	-0.308583	2.437374	0.000000	-0.065380	0.000000	0.000015	-0.000000	0.000000	0.000000
24.715418	14.488629	18.404889	-0.047794	0.098180	2.423756	0.000000	-0.002375	0.000000	0.000015	0.000000	0.000000	0.000000
25.012741	14.523165	18.351357	-0.068362	0.081870	2.423050	0.000000	-0.002375	0.000000	0.000015	0.000000	0.000000	0.000000
25.346075	14.576426	18.302872	-0.091421	0.063584	2.422258	0.000000	-0.002375	0.000000	0.000015	0.000000	0.000000	0.000000
25.679408	14.645059	18.266578	-0.114480	0.045298	2.421467	0.000000	-0.002375	0.000000	0.000015	0.000000	0.000000	0.000000
26.013991	14.729111	18.242777	-0.018134	-0.121050	2.420648	0.000000	-0.022013	0.000000	0.000015	-0.000000	0.000000	0.000000
26.311314	14.745898	18.319675	-0.002170	-0.182506	2.414103	0.000000	-0.027932	0.000000	0.000015	-0.000000	0.000000	0.000000
26.752274	14.929487	18.281951	-0.415750	0.267731	2.416899	0.000000	0.040629	0.000000	0.000015	0.000000	0.000000	0.000000
27.193234	15.484787	17.851029	-0.848324	0.705786	2.450002	0.000000	0.109652	0.000000	0.000015	0.000001	0.000000	0.000000
27.634194	16.437167	17.046517	-1.319656	1.111728	2.513786	0.000000	0.179924	0.000000	0.000016	0.000001	0.000000	0.000000
28.075154	17.830138	15.905018	-1.851279	1.467088	2.608980	0.000000	0.252245	0.000000	0.000016	0.000002	0.000000	0.000000
28.521114	19.751542	14.461275	-2.472448	1.756609	2.738270	0.000000	0.327883	0.000000	0.000017	0.000002	0.000000	0.000000
29.070174	22.193660	12.852665	-1.949038	1.190437	2.895626	0.000000	0.244461	0.000000	0.000018	0.000001	0.000000	0.000000
29.619234	23.981549	11.815848	-1.287956	0.709058	3.005919	0.000000	0.156702	0.000000	0.000019	0.000001	0.000000	0.000000
30.168294	24.988919	11.276974	-0.535900	0.278183	3.067193	0.000000	0.066165	0.000000	0.000019	0.000000	0.000000	0.000000
30.717354	25.144616	11.197661	0.254009	-0.132877	3.078360	0.000000	-0.025547	0.000000	0.000019	-0.000000	0.000000	0.000000
31.015927	25.035832	11.267586	0.176026	-0.130575	3.073134	0.000000	-0.017505	0.000000	0.000019	-0.000000	0.000000	0.000000
31.349260	24.923057	11.364665	0.162299	-0.160662	3.067299	0.000000	-0.017505	0.000000	0.000019	-0.000000	0.000000	0.000000
31.682593	24.819433	11.481803	0.148572	-0.190750	3.061464	0.000000	-0.017505	0.000000	0.000019	-0.000000	0.000000	0.000000
32.017177	24.724624	11.619551	0.134794	-0.220951	3.055608	0.000000	-0.017505	0.000000	0.000018	-0.000000	0.000000	0.000000
32.314499	24.648109	11.758917	0.058159	-0.217069	3.050403	0.000000	-0.009536	0.000000	0.000018	-0.000000	0.000000	0.000000
32.863559	24.161942	12.236500	0.822053	-0.657884	3.020279	0.000000	-0.100034	0.000000	0.000018	-0.000001	0.000000	0.000000
33.412619	22.864004	13.220888	1.527880	-1.145559	2.940881	0.000000	-0.188758	0.000000	0.000017	-0.000001	0.000000	0.000000
33.961679	20.845975	14.782198	2.125786	-1.714830	2.813617	0.000000	-0.274134	0.000000	0.000016	-0.000002	0.000000	0.000000
34.510739	18.250398	17.031637	2.573537	-2.406244	2.640744	0.000000	-0.354647	0.000000	0.000015	-0.000003	0.000000	0.000000
34.956699	16.232230	19.043679	1.968122	-2.086627	2.498931	0.000000	-0.281702	0.000000	0.000014	-0.000002	0.000000	0.000000
35.397659	14.727315	20.707775	1.457639	-1.672815	2.390097	0.000000	-0.212394	0.000000	0.000013	-0.000002	0.000000	0.000000
35.838619	13.641650	21.971838	1.013751	-1.182892	2.311264	0.000000	-0.145505	0.000000	0.000012	-0.000001	0.000000	0.000000
36.279579	12.925632	22.778354	0.616178	-0.639148	2.261532	0.000000	-0.080273	0.000000	0.000012	-0.000001	0.000000	0.000000
36.721789	12.545856	23.090934	0.277414	-0.122997	2.240310	0.000000	-0.021448	0.000000	0.000011	-0.000001	0.000000	0.000000
37.019112	12.388482	23.167960	0.251892	-0.136068	2.233933	0.000000	-0.021448	0.000000	0.000011	-0.000001	0.000000	0.000000
37.352445	12.230092	23.263556	0.223278	-0.150722	2.226784	0.000000	-0.021448	0.000000	0.000011	-0.000001	0.000000	0.000000
37.685779	12.090778	23.368922	0.194664	-0.165376	2.219635	0.000000	-0.021448	0.000000	0.000011	-0.000001	0.000000	0.000000
38.020362	11.970125	23.484507	0.165943	-0.180085	2.212459	0.000000	-0.021448	0.000000	0.000010	-0.000001	0.000000	0.000000
38.317684	11.879036	23.595480	0.169548	-0.251014	2.206082	0.000000	-0.026857	0.000000	0.000010	-0.000001	0.000000	0.000000
38.758644	11.880955	23.555505	-0.173916	0.341324	2.208169	0.000000	0.036331	0.000000	0.000010	-0.000001	0.000000	0.000000
39.199604	12.188128	22.998013	-0.525326	0.918132	2.238185	0.000000	0.099933	0.000000	0.000009	-0.000000	0.000000	0.000000
39.640564	12.814588	21.948372	-0.900737	1.453166	2.296470	0.000000	0.164674	0.000000	0.000009	-0.000000	0.000000	0.000000
40.081524	13.788958	20.454337	-1.317300	1.922081	2.383689	0.000000	0.231290	0.000000	0.000009	0.000000	0.000000	0.000000
40.527484	15.173328	18.561316	-1.797874	2.304827	2.502307	0.000000	0.300946	0.000000	0.000009	0.000000	0.000000	0.000000
41.076544	16.939944	16.434033	-1.400607	1.592452	2.647011	0.000000	0.225374	0.000000	0.000010	0.000000	0.000000	0.000000
41.625604	18.213073	15.022520	-0.904409	0.993503	2.749061	0.000000	0.145805	0.000000	0.000009	-0.000000	0.000000	0.000000
42.174664	18.902787	14.226239	-0.344328	0.465320	2.806647	0.000000	0.063649	0.000000	0.000009	-0.000001	0.000000	0.000000
42.723724	18.960369	13.988473	0.240075	-0.029720	2.818749	0.000000	-0.019635	0.000000	0.000009	-0.000001	0.000000	0.000000
43.022297	18.851462	13.990769	0.174220	-0.014519	2.815085	0.000000	-0.012271	0.000000	0.000009	-0.000001	0.000000	0.000000
43.502297	18.696804	14.021179	0.147985	-0.048834	2.809196	0.000000	-0.012271	0.000000	0.000008	-0.000001	0.000000	0.000000
43.982297	18.567332	14.084531	0.121750	-0.083150	2.803306	0.000000	-0.012271	0.000000	0.000008	-0.000001	0.000000	0.000000
44.462297	18.463045	14.180826	0.095514	-0.117465	2.797417	0.000000	-0.012271	0.000000	0.000007	-0.000001	0.000000	0.000000
44.942297	18.383944	14.310065	0.069279	-0.151781	2.791527	0.000000	-0.012271	0.000000	0.000007	-0.000001	0.000000	0.000000
45.423547	18.330148	14.472532	-0.047842	-0.114480	2.785640	0.000000	0.001531	0.000000	0.000006	-0.000001	0.000000	0.000000
45.720870	18.363431	14.546795	-0.112077	-0.097287	2.786095	0.000000	0.008810	0.000000	0.000006	-0.000001	0.000000	0.000000
46.269930	18.177300	14.934970	0.449068	-0.613867	2.768358	0.000000	-0.073325	0.000000	0.000006	-0.000001	0.000000	0.000000
46.818990	17.388816	15.910949	0.978493	-1.174170	2.705816	0.000000	-0.154159	0.000000	0.000005	-0.000001	0.000000	0.000000
47.368050	16.053671	17.544248	1.438803	-1.818108	2.599576	0.000000	-0.232260	0.000000	0.000004	-0.000001	0.000000	0.000000
47.917110	14.266175	19.951204	1.797482	-2.591545	2.451525	0.000000	-0.306240	0.000000	0.000004	-0.000001	0.000000	0.000000
48.363070	12.875163	22.091188	1.332709	-2.186882	2.330248	0.000000	-0.237936	0.000000	0.000003	-0.000001	0.000000	0.000000
48.804030	11.880031	23.804608	0.932592	-1.683991	2.239789	0.000000	-0.172740	0.000000	0.000002	-0.000001	0.000000	0.000000
49.244990	11.217718	25.038909	0.575083	-1.104480	2.177618	0.000000	-0.109510	0.000000	0.000002	-0.000001	0.000000	0.000000
49.685950	10.857967	25.737932	0.243849	-0.474717	2.143027	0.000000	-0.047529	0.000000	0.000001	-0.000001	0.000000	0.000000
50.128160	10.784464	25.869588	-0.049916	0.113158	2.135634	0.000000	0.008675	0.000000	0.000001	-0.000001	0.000000	0.000000
50.425482	10.822364	25.805760	-0.077554	0.101518	2.138214	0.000000	0.008675	0.000000	0.000000	-0.000001	0.000000	0.000000
50.758816	10.884395	25.742432	-0.108540	0.088467	2.141106	0.000000	0.008675	0.000000	0.000000	-0.000001	0.000000	0.000000
51.092149	10.967083	25.687804	-0.139525	0.075417	2.143998	0.000000	0.008675	0.000000	-0.000000	-0.000001	0.000000	0.000000
51.426732	11.070631	25.642240	-0.080815	-0.145704	2.146879	0.000000	-0.008742	0.000000	-0.000001	-0.000001	0.000000	0.000000
51.724055	11.126724	25.732403	-0.080561	-0.220650	2.144280	0.000000	-0.014000	0.000000	-0.000001	-0.000001	0.000000	0.000000
52.165015	11.343055	25.640713	-0.411891	0.427791	2.151696	0.000000	0.047664	0.000000	-0.000002	-0.000001	0.000000	0.000000
52.605975	11.858754	24.983581	-0.762039	1.056768	2.186396	0.000000	0.109871	0.000000	-0.000002	-0.000001	0.000000	0.000000
53.046935	12.697384	23.790907	-1.147003	1.637663	2.248777	0.000000	0.173329	0.000000	-0.000003	-0.000001	0.000000	0.000000
53.487895	13.897258	22.116955	-1.584370	2.144045	2.339549	0.000000	0.238761	0.000000	-0.000003	-0.000001	0.000000	0.000000
53.933855	15.533764	20.012861	-2.098351	2.554212	2.461250	0.000000	0.307312	0.000000	-0.000004	-0.000001	0.000000	0.000000
54.482915	17.640724	17.645212	-1.716329	1.783429	2.609803	0.000000	0.233008	0.000000	-0.000005	-0.000001	0.000000	0.000000
55.031975	19.258720	16.049670	-1.213075	1.139676	2.716363	0.000000	0.154571	0.000000	-0.000005	-0.000001	0.000000	0.000000
55.581035	20.273465	15.112589	-0.624135	0.577099	2.779039	0.000000	0.073393	0.000000	-0.000006	-0.000001	0.000000	0.000000
56.130095	20.613283	14.767224	0.008890	0.055627	2.796719	0.000000	-0.009087	0.000000	-0.000007	-0.000001	0.000000	0.000000
56.428668	20.644471	14.717055	-0.059485	0.073815	2.796188	0.000000	-0.001780	0.000000	-0.000007	-0.000001	0.000000	0.000000
56.762001	20.689529	14.675435	-0.075689	0.051043	2.795595	0.000000	-0.001780	0.000000	-0.000007	-0.000001	0.000000	0.000000
57.095334	20.745389	14.648998	-0.091892	0.028270	2.795002	0.000000	-0.001780	0.000000	-0.000007	-0.000001	0.000000	0.000000
57.429918	20.812322	14.637729	-0.108156	0.005411	2.794407	0.000000	-0.001780	0.000000	-0.000008	-0.000001	0.000000	0.000000
57.727240	20.880934	14.640551	-0.177171	0.023354	2.793878	0.000000	0.005521	0.000000	-0.000008	-0.000001	0.000000	0.000000
58.276300	20.719262	14.896029	0.469879	-0.491402	2.774272	0.000000	-0.076836	0.000000	-0.000008	-0.000001	0.000000	0.000000
58.825360	19.861153	15.732559	1.083739	-1.041159	2.709754	0.000000	-0.157830	0.000000	-0.000009	-0.000000	0.000000	0.000000
59.374420	18.367219	17.209725	1.621049	-1.665076	2.601470	0.000000	-0.236025	0.000000	-0.000009	-0.000000	0.000000	0.000000
59.923480	16.342984	19.432742	2.043856	-2.407593	2.451339	0.000000	-0.310033	0.000000	-0.000009	0.000000	0.000000	0.000000
60.369440	14.758641	21.408574	1.521382	-2.004218	2.328366	0.000000	-0.241756	0.000000	-0.000008	0.000000	0.000000	0.000000
60.810400	13.619113	22.964578	1.072620	-1.511028	2.236208	0.000000	-0.176630	0.000000	-0.000009	-0.000000	0.000000	0.000000
61.251360	12.852335	24.053534	0.672862	-0.949088	2.172298	0.000000	-0.113515	0.000000	-0.000009	-0.000000	0.000000	0.000000
61.692320	12.423274	24.625896	0.303845	-0.343964	2.135907	0.000000	-0.051694	0.000000	-0.000009	-0.000001	0.000000	0.000000
62.134530	12.312380	24.655082	-0.021195	0.216288	2.126627	0.000000	0.004323	0.000000	-0.000009	-0.000001	0.000000	0.000000
62.431853	12.332167	24.530220	-0.045354	0.203665	2.127913	0.000000	0.004323	0.000000	-0.000009	-0.000001	0.000000	0.000000
62.765186	12.371432	24.399161	-0.072439	0.189512	2.129354	0.000000	0.004323	0.000000	-0.000010	-0.000001	0.000000	0.000000
63.098520	12.428753	24.277537	-0.099525	0.175360	2.130796	0.000000	0.004323	0.000000	-0.000010	-0.000001	0.000000	0.000000
63.433103	12.504448	24.164945	-0.126711	0.161155	2.132243	0.000000	0.004323	0.000000	-0.000010	-0.000001	0.000000	0.000000
63.730426	12.586979	24.072868	-0.120000	0.089491	2.133528	0.000000	-0.000909	0.000000	-0.000011	-0.000001	0.000000	0.000000
64.171386	12.853110	23.728831	-0.485815	0.687741	2.146666	0.000000	0.060551	0.000000	-0.000011	-0.000001	0.000000	0.000000
64.612346	13.450390	22.869021	-0.873825	1.254699	2.187032	0.000000	0.122702	0.000000	-0.000012	-0.000001	0.000000	0.000000
65.053306	14.406109	21.532559	-1.301758	1.764569	2.255085	0.000000	0.186249	0.000000	-0.000012	-0.000002	0.000000	0.000000
65.494266	15.763931	19.780254	-1.789164	2.194153	2.351601	0.000000	0.251918	0.000000	-0.000013	-0.000002	0.000000	0.000000
65.940226	17.609050	17.667037	-2.363004	2.524658	2.479251	0.000000	0.320858	0.000000	-0.000014	-0.000002	0.000000	0.000000
66.489286	19.974360	15.303016	-1.919424	1.806337	2.635061	0.000000	0.245854	0.000000	-0.000015	-0.000002	0.000000	0.000000
67.038346	21.774783	13.652940	-1.340267	1.216678	2.748429	0.000000	0.166488	0.000000	-0.000016	-0.000001	0.000000	0.000000
67.587406	22.883146	12.599278	-0.666440	0.713680	2.817345	0.000000	0.084170	0.000000	-0.000017	-0.000001	0.000000	0.000000
68.136466	23.221159	12.066980	0.054461	0.261515	2.840585	0.000000	0.000359	0.000000	-0.000017	-0.000000	0.000000	0.000000
68.435038	23.228712	11.900009	-0.019078	0.266181	2.842908	0.000000	0.007782	0.000000	-0.000017	-0.000000	0.000000	0.000000
68.768372	23.246216	11.732554	-0.033433	0.236185	2.845502	0.000000	0.007782	0.000000	-0.000017	-0.000000	0.000000	0.000000
69.101705	23.273290	11.585096	-0.047789	0.206189	2.848096	0.000000	0.007782	0.000000	-0.000017	-0.000000	0.000000	0.000000
69.436288	23.310090	11.457195	-0.062198	0.176081	2.850700	0.000000	0.007782	0.000000	-0.000017	-0.000000	0.000000	0.000000
69.733611	23.350883	11.360444	-0.136023	0.179013	2.853014	0.000000	0.015237	0.000000	-0.000018	-0.000000	0.000000	0.000000
70.282671	23.099212	11.391383	0.591675	-0.235695	2.838202	0.000000	-0.069113	0.000000	-0.000018	0.000000	0.000000	0.000000
