#ParticleID	Turn	x[m]	xp	y[m]	yp	z[m]	dE[GeV]# s	beta_x	beta_y	alpha_x	alpha_y	D_x	D_y	D_px	D_py	orbit_x	orbit_px	orbit_y	orbit_py
0.300000	11.812754	25.023297	-0.010888	-0.027241	2.618055	0.000000	0.000034	0.000000	-0.000000	0.000001	0.000000	0.000000
0.601250	11.826997	25.043339	-0.036393	-0.039288	2.618065	0.000000	0.000034	0.000000	0.000000	0.000001	0.000000	0.000000
0.898573	11.856122	25.070237	-0.032491	-0.112658	2.618075	0.000000	-0.006386	0.000000	0.000001	0.000001	0.000000	0.000000
1.339533	12.036893	24.891493	-0.379011	0.516468	2.631551	0.000000	0.067570	0.000000	0.000001	0.000001	0.000000	0.000000
1.780493	12.529718	24.166192	-0.742848	1.122094	2.677778	0.000000	0.142296	0.000000	0.000002	0.000001	0.000000	0.000000
2.221453	13.357115	22.927336	-1.140623	1.676667	2.757282	0.000000	0.218643	0.000000	0.000002	0.000001	0.000000	0.000000
2.662413	14.556884	21.231292	-1.590510	2.154952	2.870967	0.000000	0.297479	0.000000	0.000003	0.000001	0.000000	0.000000
3.108373	16.204581	19.130354	-2.117351	2.536321	3.021992	0.000000	0.380194	0.000000	0.000004	0.000001	0.000000	0.000000
3.657433	18.317481	16.770684	-1.708081	1.786701	3.205469	0.000000	0.287156	0.000000	0.000004	0.000001	0.000000	0.000000
4.206493	19.911639	15.159892	-1.178161	1.164343	3.336386	0.000000	0.189024	0.000000	0.000005	0.000001	0.000000	0.000000
4.755553	20.874450	14.183246	-0.565021	0.624918	3.412423	0.000000	0.087540	0.000000	0.000006	0.000001	0.000000	0.000000
5.304613	21.137907	13.771179	0.088029	0.130005	3.432230	0.000000	-0.015497	0.000000	0.000006	0.000001	0.000000	0.000000
5.603185	21.122541	13.678714	0.018662	0.143707	3.430280	0.000000	-0.006530	0.000000	0.000007	0.000001	0.000000	0.000000
5.936519	21.115362	13.591200	0.002876	0.118835	3.428103	0.000000	-0.006530	0.000000	0.000007	0.000001	0.000000	0.000000
6.269852	21.118706	13.520268	-0.012910	0.093963	3.425926	0.000000	-0.006530	0.000000	0.000007	0.000001	0.000000	0.000000
6.604435	21.132647	13.465744	-0.028756	0.068997	3.423741	0.000000	-0.006530	0.000000	0.000007	0.000001	0.000000	0.000000
6.901758	21.153934	13.431312	-0.098105	0.081904	3.421799	0.000000	0.002410	0.000000	0.000008	0.000001	0.000000	0.000000
7.450818	20.901143	13.602207	0.555785	-0.394991	3.394920	0.000000	-0.100174	0.000000	0.000008	0.000001	0.000000	0.000000
7.999878	19.947711	14.309074	1.170417	-0.900021	3.312121	0.000000	-0.200982	0.000000	0.000008	0.000000	0.000000	0.000000
8.548938	18.360982	15.602261	1.702377	-1.469156	3.174872	0.000000	-0.298225	0.000000	0.000008	0.000000	0.000000	0.000000
9.097998	16.253035	17.573879	2.114089	-2.142937	2.985606	0.000000	-0.390178	0.000000	0.000008	-0.000000	0.000000	0.000000
9.543958	14.608461	19.330684	1.586738	-1.779792	2.829910	0.000000	-0.308468	0.000000	0.000008	0.000000	0.000000	0.000000
9.984918	13.412305	20.710272	1.136169	-1.336902	2.711135	0.000000	-0.230755	0.000000	0.000008	0.000000	0.000000	0.000000
10.425878	12.589211	21.670849	0.737508	-0.833184	2.626017	0.000000	-0.155670	0.000000	0.000009	0.000000	0.000000	0.000000
10.866838	12.101573	22.168709	0.372542	-0.291557	2.573586	0.000000	-0.082359	0.000000	0.000009	0.000001	0.000000	0.000000
11.309048	11.926978	22.180679	0.053737	0.208886	2.553224	0.000000	-0.016246	0.000000	0.000009	0.000001	0.000000	0.000000
11.606371	11.902457	22.060625	0.028737	0.194897	2.548394	0.000000	-0.016246	0.000000	0.000009	0.000001	0.000000	0.000000
12.086371	11.894243	21.884364	-0.011624	0.172312	2.540595	0.000000	-0.016246	0.000000	0.000010	0.000001	0.000000	0.000000
12.566371	11.924776	21.729785	-0.051986	0.149728	2.532797	0.000000	-0.016246	0.000000	0.000010	0.000001	0.000000	0.000000
13.046371	11.994055	21.596888	-0.092347	0.127143	2.524998	0.000000	-0.016246	0.000000	0.000011	0.000001	0.000000	0.000000
13.526371	12.102082	21.485671	-0.132708	0.104558	2.517200	0.000000	-0.016246	0.000000	0.000011	0.000001	0.000000	0.000000
14.007621	12.249287	21.395931	-0.173174	0.081915	2.509381	0.000000	-0.016246	0.000000	0.000012	0.000001	0.000000	0.000000
14.304943	12.359697	21.351380	-0.167868	0.015571	2.504550	0.000000	-0.022387	0.000000	0.000012	0.000001	0.000000	0.000000
14.745903	12.666276	21.103959	-0.530021	0.543391	2.510311	0.000000	0.048543	0.000000	0.000012	0.000001	0.000000	0.000000
15.186863	13.301675	20.400208	-0.916389	1.046487	2.547442	0.000000	0.120026	0.000000	0.000013	0.000002	0.000000	0.000000
15.627823	14.294924	19.272147	-1.344624	1.501969	2.616364	0.000000	0.192877	0.000000	0.000014	0.000002	0.000000	0.000000
16.068783	15.691401	17.771104	-1.834292	1.889112	2.717864	0.000000	0.267924	0.000000	0.000015	0.000002	0.000000	0.000000
16.514743	17.578565	15.943871	-2.412520	2.191047	2.854792	0.000000	0.346484	0.000000	0.000016	0.000003	0.000000	0.000000
17.063803	20.002375	13.903602	-1.975817	1.546817	3.021298	0.000000	0.259139	0.000000	0.000017	0.000002	0.000000	0.000000
17.612863	21.866692	12.506485	-1.399552	1.012763	3.138511	0.000000	0.167196	0.000000	0.000018	0.000002	0.000000	0.000000
18.161923	23.039830	11.653007	-0.724429	0.550847	3.204353	0.000000	0.072289	0.000000	0.000019	0.000001	0.000000	0.000000
18.710983	23.438924	11.282377	0.001864	0.128166	3.217656	0.000000	-0.023901	0.000000	0.000019	0.000000	0.000000	0.000000
19.009556	23.478192	11.196341	-0.072151	0.130518	3.213029	0.000000	-0.015496	0.000000	0.000019	0.000000	0.000000	0.000000
19.342889	23.531051	11.119421	-0.086423	0.100239	3.207864	0.000000	-0.015496	0.000000	0.000019	0.000000	0.000000	0.000000
19.676223	23.593423	11.062688	-0.100694	0.069961	3.202699	0.000000	-0.015496	0.000000	0.000019	0.000000	0.000000	0.000000
20.010806	23.665890	11.025905	-0.232273	0.094197	3.197534	0.000000	0.000347	0.000000	0.000019	0.000000	0.000000	0.000000
20.308129	23.807947	10.977979	-0.307710	0.095671	3.197637	0.000000	0.008700	0.000000	0.000020	0.000001	0.000000	0.000000
20.857189	23.735220	11.095038	0.439384	-0.310127	3.176189	0.000000	-0.086709	0.000000	0.000020	-0.000000	0.000000	0.000000
21.406249	22.854350	11.667155	1.155442	-0.738016	3.102702	0.000000	-0.180581	0.000000	0.000019	-0.000001	0.000000	0.000000
21.955309	21.227558	12.735080	1.789885	-1.218472	2.978479	0.000000	-0.271249	0.000000	0.000019	-0.000001	0.000000	0.000000
22.504369	18.969753	14.374880	2.297899	-1.785716	2.805723	0.000000	-0.357106	0.000000	0.000018	-0.000002	0.000000	0.000000
22.950329	17.190373	15.847139	1.706184	-1.501681	2.663765	0.000000	-0.279884	0.000000	0.000017	-0.000002	0.000000	0.000000
23.391289	15.914971	17.020969	1.197116	-1.150174	2.556673	0.000000	-0.206303	0.000000	0.000017	-0.000001	0.000000	0.000000
23.832249	15.062805	17.860448	0.742741	-0.746336	2.481479	0.000000	-0.135073	0.000000	0.000016	-0.000001	0.000000	0.000000
24.273209	14.594940	18.327383	0.322299	-0.308539	2.437325	0.000000	-0.065381	0.000000	0.000016	-0.000000	0.000000	0.000000
24.715418	14.490120	18.400282	-0.047975	0.098110	2.423706	0.000000	-0.002376	0.000000	0.000016	0.000000	0.000000	0.000000
25.012741	14.524763	18.346791	-0.068542	0.081796	2.423000	0.000000	-0.002376	0.000000	0.000016	0.000000	0.000000	0.000000
25.346075	14.578143	18.298358	-0.091599	0.063506	2.422208	0.000000	-0.002376	0.000000	0.000016	0.000000	0.000000	0.000000
25.679408	14.646895	18.262117	-0.114656	0.045216	2.421416	0.000000	-0.002376	0.000000	0.000016	0.000000	0.000000	0.000000
26.013991	14.731063	18.238372	-0.018291	-0.121101	2.420596	0.000000	-0.022013	0.000000	0.000016	-0.000000	0.000000	0.000000
26.311314	14.747943	18.315303	-0.002321	-0.182550	2.414051	0.000000	-0.027932	0.000000	0.000016	-0.000000	0.000000	0.000000
26.752274	14.931688	18.277670	-0.415953	0.267569	2.416847	0.000000	0.040627	0.000000	0.000016	0.000000	0.000000	0.000000
27.193234	15.487193	17.846940	-0.848589	0.705514	2.449948	0.000000	0.109649	0.000000	0.000016	0.000001	0.000000	0.000000
27.634194	16.439838	17.042711	-1.319994	1.111358	2.513731	0.000000	0.179919	0.000000	0.000017	0.000001	0.000000	0.000000
28.075154	17.833146	15.901576	-1.851707	1.466637	2.608922	0.000000	0.252239	0.000000	0.000018	0.000002	0.000000	0.000000
28.521114	19.754979	14.458264	-2.472986	1.756097	2.738209	0.000000	0.327875	0.000000	0.000018	0.000002	0.000000	0.000000
29.070174	22.197642	12.850149	-1.949486	1.190042	2.895562	0.000000	0.244455	0.000000	0.000019	0.000002	0.000000	0.000000
29.619234	23.985958	11.813715	-1.288283	0.708751	3.005852	0.000000	0.156699	0.000000	0.000020	0.000001	0.000000	0.000000
30.168294	24.993609	11.275140	-0.536082	0.277942	3.067125	0.000000	0.066163	0.000000	0.000020	0.000000	0.000000	0.000000
30.717354	25.149420	11.196063	0.253985	-0.133069	3.078292	0.000000	-0.025546	0.000000	0.000020	-0.000000	0.000000	0.000000
31.015927	25.040657	11.266107	0.175992	-0.130775	3.073066	0.000000	-0.017504	0.000000	0.000020	-0.000000	0.000000	0.000000
31.349260	24.927903	11.363321	0.162268	-0.160869	3.067231	0.000000	-0.017504	0.000000	0.000020	-0.000000	0.000000	0.000000
31.682593	24.824299	11.480598	0.148544	-0.190962	3.061397	0.000000	-0.017504	0.000000	0.000020	-0.000000	0.000000	0.000000
32.017177	24.729507	11.618490	0.134769	-0.221168	3.055540	0.000000	-0.017504	0.000000	0.000020	-0.000000	0.000000	0.000000
32.314499	24.653007	11.757988	0.058124	-0.217294	3.050336	0.000000	-0.009535	0.000000	0.000020	-0.000000	0.000000	0.000000
32.863559	24.166789	12.235809	0.822180	-0.658096	3.020213	0.000000	-0.100032	0.000000	0.000019	-0.000001	0.000000	0.000000
33.412619	22.868625	13.220429	1.528161	-1.145772	2.940816	0.000000	-0.188753	0.000000	0.000019	-0.000002	0.000000	0.000000
33.961679	20.850212	14.781979	2.126200	-1.715059	2.813555	0.000000	-0.274127	0.000000	0.000018	-0.000002	0.000000	0.000000
34.510739	18.254120	17.031687	2.574055	-2.406506	2.640687	0.000000	-0.354639	0.000000	0.000016	-0.000003	0.000000	0.000000
34.956699	16.235541	19.043974	1.968528	-2.086914	2.498878	0.000000	-0.281695	0.000000	0.000015	-0.000002	0.000000	0.000000
35.397659	14.730311	20.708330	1.457951	-1.673114	2.390047	0.000000	-0.212388	0.000000	0.000014	-0.000002	0.000000	0.000000
35.838619	13.644405	21.972656	1.013984	-1.183188	2.311215	0.000000	-0.145500	0.000000	0.000013	-0.000002	0.000000	0.000000
36.279579	12.928213	22.779427	0.616343	-0.639428	2.261486	0.000000	-0.080269	0.000000	0.000013	-0.000001	0.000000	0.000000
36.721789	12.548319	23.092244	0.277524	-0.123252	2.240264	0.000000	-0.021446	0.000000	0.000012	-0.000001	0.000000	0.000000
37.019112	12.390877	23.169421	0.252005	-0.136323	2.233888	0.000000	-0.021446	0.000000	0.000012	-0.000001	0.000000	0.000000
37.352445	12.232411	23.265187	0.223395	-0.150977	2.226740	0.000000	-0.021446	0.000000	0.000012	-0.000001	0.000000	0.000000
37.685779	12.093017	23.370723	0.194785	-0.165631	2.219592	0.000000	-0.021446	0.000000	0.000012	-0.000001	0.000000	0.000000
38.020362	11.972282	23.486479	0.166068	-0.180340	2.212417	0.000000	-0.021446	0.000000	0.000011	-0.000001	0.000000	0.000000
38.317684	11.881117	23.597604	0.169682	-0.251274	2.206041	0.000000	-0.026855	0.000000	0.000011	-0.000001	0.000000	0.000000
38.758644	11.882939	23.557832	-0.173828	0.341124	2.208129	0.000000	0.036332	0.000000	0.000011	-0.000001	0.000000	0.000000
39.199604	12.190053	23.000488	-0.525281	0.918001	2.238144	0.000000	0.099934	0.000000	0.000010	-0.000000	0.000000	0.000000
39.640564	12.816490	21.950929	-0.900731	1.453109	2.296430	0.000000	0.164673	0.000000	0.000010	-0.000000	0.000000	0.000000
40.081524	13.790872	20.456910	-1.317334	1.922102	2.383648	0.000000	0.231288	0.000000	0.000010	0.000000	0.000000	0.000000
40.527484	15.175290	18.563836	-1.797949	2.304925	2.502266	0.000000	0.300943	0.000000	0.000010	0.000000	0.000000	0.000000
41.076544	16.941948	16.436481	-1.400607	1.592483	2.646968	0.000000	0.225373	0.000000	0.000010	0.000000	0.000000	0.000000
41.625604	18.215035	15.024969	-0.904334	0.993470	2.749017	0.000000	0.145805	0.000000	0.000010	-0.000000	0.000000	0.000000
42.174664	18.904627	14.228760	-0.344182	0.465220	2.806604	0.000000	0.063651	0.000000	0.000010	-0.000001	0.000000	0.000000
42.723724	18.962016	13.991143	0.240280	-0.029893	2.818707	0.000000	-0.019632	0.000000	0.000010	-0.000001	0.000000	0.000000
43.022297	18.852988	13.993537	0.174421	-0.014681	2.815044	0.000000	-0.012268	0.000000	0.000009	-0.000001	0.000000	0.000000
43.502297	18.698137	14.024099	0.148186	-0.048990	2.809156	0.000000	-0.012268	0.000000	0.000009	-0.000001	0.000000	0.000000
43.982297	18.568471	14.087598	0.121952	-0.083299	2.803268	0.000000	-0.012268	0.000000	0.000009	-0.000001	0.000000	0.000000
44.462297	18.463990	14.184033	0.095717	-0.117608	2.797379	0.000000	-0.012268	0.000000	0.000008	-0.000001	0.000000	0.000000
44.942297	18.384694	14.313405	0.069482	-0.151917	2.791491	0.000000	-0.012268	0.000000	0.000008	-0.000001	0.000000	0.000000
45.423547	18.330703	14.476000	-0.047641	-0.114592	2.785605	0.000000	0.001533	0.000000	0.000007	-0.000001	0.000000	0.000000
45.720870	18.363866	14.550329	-0.111877	-0.097386	2.786061	0.000000	0.008812	0.000000	0.000007	-0.000001	0.000000	0.000000
46.269930	18.177509	14.938671	0.449277	-0.614075	2.768326	0.000000	-0.073322	0.000000	0.000006	-0.000001	0.000000	0.000000
46.818990	17.388796	15.914946	0.978697	-1.174504	2.705785	0.000000	-0.154155	0.000000	0.000006	-0.000001	0.000000	0.000000
47.368050	16.053438	17.548691	1.438986	-1.818590	2.599549	0.000000	-0.232254	0.000000	0.000005	-0.000001	0.000000	0.000000
47.917110	14.265758	19.956274	1.797632	-2.592210	2.451500	0.000000	-0.306234	0.000000	0.000004	-0.000002	0.000000	0.000000
48.363070	12.874616	22.096803	1.332852	-2.187434	2.330226	0.000000	-0.237931	0.000000	0.000003	-0.000001	0.000000	0.000000
48.804030	11.879358	23.810651	0.932736	-1.684405	2.239769	0.000000	-0.172735	0.000000	0.000003	-0.000001	0.000000	0.000000
49.244990	11.216916	25.045249	0.575234	-1.104738	2.177601	0.000000	-0.109506	0.000000	0.000002	-0.000001	0.000000	0.000000
49.685950	10.857027	25.744425	0.244013	-0.474805	2.143012	0.000000	-0.047524	0.000000	0.000002	-0.000001	0.000000	0.000000
50.128160	10.783370	25.876083	-0.049733	0.113226	2.135620	0.000000	0.008679	0.000000	0.000001	-0.000001	0.000000	0.000000
50.425482	10.821162	25.812214	-0.077374	0.101589	2.138201	0.000000	0.008679	0.000000	0.000001	-0.000001	0.000000	0.000000
50.758816	10.883074	25.748837	-0.108362	0.088542	2.141095	0.000000	0.008679	0.000000	0.000000	-0.000001	0.000000	0.000000
51.092149	10.965645	25.694158	-0.139350	0.075495	2.143988	0.000000	0.008679	0.000000	-0.000000	-0.000001	0.000000	0.000000
51.426732	11.069076	25.648541	-0.080655	-0.145675	2.146870	0.000000	-0.008738	0.000000	-0.000001	-0.000001	0.000000	0.000000
51.724055	11.125075	25.738686	-0.080408	-0.220633	2.144273	0.000000	-0.013996	0.000000	-0.000001	-0.000001	0.000000	0.000000
52.165015	11.341254	25.646908	-0.411697	0.427974	2.151690	0.000000	0.047667	0.000000	-0.000002	-0.000001	0.000000	0.000000
52.605975	11.856761	24.989545	-0.761795	1.057108	2.186392	0.000000	0.109874	0.000000	-0.000002	-0.000001	0.000000	0.000000
53.046935	12.695149	23.796507	-1.146697	1.638144	2.248775	0.000000	0.173332	0.000000	-0.000003	-0.000001	0.000000	0.000000
53.487895	13.894721	22.122076	-1.583989	2.144646	2.339548	0.000000	0.238765	0.000000	-0.000003	-0.000001	0.000000	0.000000
53.933855	15.530847	20.017402	-2.097876	2.554907	2.461251	0.000000	0.307315	0.000000	-0.000004	-0.000002	0.000000	0.000000
54.482915	17.637325	17.649089	-1.715931	1.783949	2.609806	0.000000	0.233011	0.000000	-0.000005	-0.000001	0.000000	0.000000
55.031975	19.254938	16.053055	-1.212780	1.140058	2.716368	0.000000	0.154575	0.000000	-0.000006	-0.000001	0.000000	0.000000
55.581035	20.269426	15.115618	-0.623965	0.577371	2.779045	0.000000	0.073396	0.000000	-0.000006	-0.000001	0.000000	0.000000
56.130095	20.609132	14.770004	0.008923	0.055808	2.796727	0.000000	-0.009084	0.000000	-0.000007	-0.000001	0.000000	0.000000
56.428668	20.640295	14.719722	-0.059444	0.074007	2.796197	0.000000	-0.001777	0.000000	-0.000007	-0.000001	0.000000	0.000000
56.762001	20.685326	14.677974	-0.075651	0.051238	2.795605	0.000000	-0.001777	0.000000	-0.000007	-0.000001	0.000000	0.000000
57.095334	20.741163	14.651405	-0.091858	0.028468	2.795013	0.000000	-0.001777	0.000000	-0.000008	-0.000001	0.000000	0.000000
57.429918	20.808074	14.640002	-0.108125	0.005614	2.794419	0.000000	-0.001777	0.000000	-0.000008	-0.000001	0.000000	0.000000
57.727240	20.876668	14.642702	-0.177132	0.023565	2.793891	0.000000	0.005524	0.000000	-0.000008	-0.000001	0.000000	0.000000
58.276300	20.715032	14.897981	0.469775	-0.491248	2.774286	0.000000	-0.076834	0.000000	-0.000009	-0.000001	0.000000	0.000000
58.825360	19.857112	15.734369	1.083499	-1.041052	2.709770	0.000000	-0.157828	0.000000	-0.000009	-0.000000	0.000000	0.000000
59.374420	18.363508	17.211439	1.620691	-1.665008	2.601486	0.000000	-0.236023	0.000000	-0.000009	-0.000000	0.000000	0.000000
59.923480	16.339720	19.434401	2.043405	-2.407559	2.451357	0.000000	-0.310032	0.000000	-0.000009	0.000000	0.000000	0.000000
60.369440	14.755735	21.410175	1.521028	-2.004125	2.328384	0.000000	-0.241755	0.000000	-0.000009	0.000000	0.000000	0.000000
60.810400	13.616483	22.966073	1.072346	-1.510881	2.236227	0.000000	-0.176628	0.000000	-0.000009	-0.000000	0.000000	0.000000
61.251360	12.849915	24.054878	0.672656	-0.948893	2.172317	0.000000	-0.113513	0.000000	-0.000009	-0.000000	0.000000	0.000000
61.692320	12.421009	24.627050	0.303698	-0.343731	2.135928	0.000000	-0.051691	0.000000	-0.000009	-0.000001	0.000000	0.000000
62.134530	12.310224	24.656015	-0.021296	0.216547	2.126650	0.000000	0.004327	0.000000	-0.000010	-0.000001	0.000000	0.000000
62.431853	12.330072	24.531000	-0.045460	0.203923	2.127936	0.000000	0.004327	0.000000	-0.000010	-0.000001	0.000000	0.000000
62.765186	12.369408	24.399769	-0.072550	0.189770	2.129379	0.000000	0.004327	0.000000	-0.000010	-0.000001	0.000000	0.000000
63.098520	12.426805	24.277973	-0.099640	0.175617	2.130822	0.000000	0.004327	0.000000	-0.000011	-0.000001	0.000000	0.000000
63.433103	12.502578	24.165210	-0.126832	0.161410	2.132270	0.000000	0.004327	0.000000	-0.000011	-0.000001	0.000000	0.000000
63.730426	12.585182	24.072981	-0.120129	0.089745	2.133556	0.000000	-0.000906	0.000000	-0.000011	-0.000001	0.000000	0.000000
64.171386	12.851410	23.728721	-0.485906	0.687991	2.146696	0.000000	0.060555	0.000000	-0.000012	-0.000001	0.000000	0.000000
64.612346	13.448756	22.868696	-0.873883	1.254934	2.187063	0.000000	0.122706	0.000000	-0.000012	-0.000001	0.000000	0.000000
65.053306	14.404512	21.532037	-1.301785	1.764779	2.255119	0.000000	0.186255	0.000000	-0.000013	-0.000002	0.000000	0.000000
65.494266	15.762344	19.779561	-1.789162	2.194327	2.351638	0.000000	0.251925	0.000000	-0.000014	-0.000002	0.000000	0.000000
65.940226	17.607448	17.666208	-2.362971	2.524788	2.479291	0.000000	0.320866	0.000000	-0.000015	-0.000003	0.000000	0.000000
66.489286	19.972759	15.302045	-1.919458	1.806468	2.635105	0.000000	0.245860	0.000000	-0.000016	-0.000002	0.000000	0.000000
67.038346	21.773254	13.651821	-1.340364	1.216818	2.748476	0.000000	0.166493	0.000000	-0.000017	-0.000001	0.000000	0.000000
67.587406	22.881756	12.597995	-0.666594	0.713839	2.817394	0.000000	0.084173	0.000000	-0.000018	-0.000001	0.000000	0.000000
68.136466	23.219965	12.065505	0.054261	0.261706	2.840635	0.000000	0.000360	0.000000	-0.000018	-0.000000	0.000000	0.000000
68.435038	23.227637	11.898425	-0.019277	0.266362	2.842959	0.000000	0.007783	0.000000	-0.000018	-0.000000	0.000000	0.000000
68.768372	23.245273	11.730851	-0.033633	0.236359	2.845554	0.000000	0.007783	0.000000	-0.000018	-0.000000	0.000000	0.000000
69.101705	23.272481	11.583280	-0.047989	0.206357	2.848149	0.000000	0.007783	0.000000	-0.000019	-0.000000	0.000000	0.000000
69.436288	23.309414	11.455269	-0.062399	0.176242	2.850753	0.000000	0.007783	0.000000	-0.000019	-0.000000	0.000000	0.000000
69.733611	23.350327	11.358424	-0.136223	0.179162	2.853067	0.000000	0.015239	0.000000	-0.000019	-0.000000	0.000000	0.000000
70.282671	23.098885	11.389168	0.591462	-0.235486	2.838255	0.000000	-0.069113	0.000000	-0.000019	0.000000	0.000000	0.000000
