#ParticleID	Turn	x[m]	xp	y[m]	yp	z[m]	dE[GeV]# s	beta_x	beta_y	alpha_x	alpha_y	D_x	D_y	D_px	D_py	orbit_x	orbit_px	orbit_y	orbit_py
0.300000	11.806304	25.048880	-0.010266	-0.026933	2.618184	0.000000	-0.000014	0.000000	-0.000002	0.000002	0.000000	0.000000
0.601250	11.820177	25.068732	-0.035785	-0.038968	2.618179	0.000000	-0.000014	0.000000	-0.000001	0.000002	0.000000	0.000000
0.898573	11.848945	25.095436	-0.031914	-0.112387	2.618174	0.000000	-0.006434	0.000000	-0.000001	0.000002	0.000000	0.000000
1.339533	12.029130	24.916160	-0.378255	0.517398	2.631630	0.000000	0.067524	0.000000	0.000000	0.000002	0.000000	0.000000
1.780493	12.521198	24.189763	-0.741879	1.123643	2.677837	0.000000	0.142252	0.000000	0.000001	0.000002	0.000000	0.000000
2.221453	13.347630	22.949293	-1.139397	1.678763	2.757321	0.000000	0.218600	0.000000	0.000002	0.000002	0.000000	0.000000
2.662413	14.546184	21.251193	-1.588970	2.157500	2.870988	0.000000	0.297437	0.000000	0.000002	0.000002	0.000000	0.000000
3.108373	16.192341	19.147823	-2.115425	2.539206	3.021994	0.000000	0.380152	0.000000	0.000003	0.000002	0.000000	0.000000
3.657433	18.303293	16.785383	-1.706480	1.788891	3.205447	0.000000	0.287114	0.000000	0.000004	0.000002	0.000000	0.000000
4.206493	19.895924	15.172495	-1.176998	1.165993	3.336343	0.000000	0.188984	0.000000	0.000005	0.000002	0.000000	0.000000
4.755553	20.857737	14.194276	-0.564378	0.626148	3.412357	0.000000	0.087501	0.000000	0.000006	0.000001	0.000000	0.000000
5.304613	21.120797	13.781050	0.088107	0.130901	3.432143	0.000000	-0.015533	0.000000	0.000007	0.000001	0.000000	0.000000
5.603185	21.105361	13.688032	0.018773	0.144637	3.430182	0.000000	-0.006566	0.000000	0.000007	0.000001	0.000000	0.000000
5.936519	21.098112	13.599895	0.002974	0.119775	3.427993	0.000000	-0.006566	0.000000	0.000007	0.000001	0.000000	0.000000
6.269852	21.101396	13.528332	-0.012825	0.094914	3.425804	0.000000	-0.006566	0.000000	0.000008	0.000001	0.000000	0.000000
6.604435	21.115284	13.473168	-0.028684	0.069959	3.423607	0.000000	-0.006566	0.000000	0.000008	0.000001	0.000000	0.000000
6.901758	21.136531	13.438161	-0.097998	0.082892	3.421654	0.000000	0.002373	0.000000	0.000009	0.000001	0.000000	0.000000
7.450818	20.883944	13.608072	0.555311	-0.394177	3.394756	0.000000	-0.100206	0.000000	0.000009	0.000001	0.000000	0.000000
7.999878	19.931338	14.314112	1.169395	-0.899322	3.311941	0.000000	-0.201008	0.000000	0.000010	0.000001	0.000000	0.000000
8.548938	18.346001	15.606572	1.700880	-1.468523	3.174679	0.000000	-0.298245	0.000000	0.000010	0.000000	0.000000	0.000000
9.097998	16.239911	17.577511	2.112223	-2.142325	2.985404	0.000000	-0.390192	0.000000	0.000010	0.000000	0.000000	0.000000
9.543958	14.596820	19.333690	1.585268	-1.779005	2.829700	0.000000	-0.308487	0.000000	0.000010	0.000000	0.000000	0.000000
9.984918	13.401813	20.712520	1.135024	-1.335978	2.710915	0.000000	-0.230780	0.000000	0.000010	0.000001	0.000000	0.000000
10.425878	12.579605	21.672236	0.736637	-0.832164	2.625785	0.000000	-0.155701	0.000000	0.000010	0.000001	0.000000	0.000000
10.866838	12.092630	22.169172	0.371904	-0.290488	2.573339	0.000000	-0.082395	0.000000	0.000011	0.000001	0.000000	0.000000
11.309048	11.918507	22.180193	0.053282	0.209958	2.552960	0.000000	-0.016288	0.000000	0.000011	0.000001	0.000000	0.000000
11.606371	11.894261	22.059504	0.028265	0.195962	2.548117	0.000000	-0.016288	0.000000	0.000012	0.000001	0.000000	0.000000
12.086371	11.886513	21.882226	-0.012123	0.173367	2.540297	0.000000	-0.016288	0.000000	0.000012	0.000001	0.000000	0.000000
12.566371	11.917537	21.726639	-0.052510	0.150772	2.532478	0.000000	-0.016288	0.000000	0.000013	0.000001	0.000000	0.000000
13.046371	11.987333	21.592743	-0.092898	0.128177	2.524659	0.000000	-0.016288	0.000000	0.000014	0.000001	0.000000	0.000000
13.526371	12.095901	21.480539	-0.133286	0.105582	2.516840	0.000000	-0.016288	0.000000	0.000014	0.000001	0.000000	0.000000
14.007621	12.243677	21.389818	-0.173779	0.082929	2.509001	0.000000	-0.016288	0.000000	0.000015	0.000001	0.000000	0.000000
14.304943	12.354452	21.344666	-0.168504	0.016597	2.504158	0.000000	-0.022428	0.000000	0.000015	0.000001	0.000000	0.000000
14.745903	12.661545	21.096426	-0.530558	0.544214	2.509898	0.000000	0.048492	0.000000	0.000016	0.000002	0.000000	0.000000
15.186863	13.297384	20.392053	-0.916852	1.047070	2.547003	0.000000	0.119964	0.000000	0.000017	0.000002	0.000000	0.000000
15.627823	14.291017	19.263595	-1.345035	1.502285	2.615895	0.000000	0.192802	0.000000	0.000018	0.000003	0.000000	0.000000
16.068783	15.687840	17.762396	-1.834668	1.889147	2.717359	0.000000	0.267837	0.000000	0.000019	0.000003	0.000000	0.000000
16.514743	17.575332	15.935260	-2.412880	2.190796	2.854245	0.000000	0.346384	0.000000	0.000021	0.000004	0.000000	0.000000
17.063803	19.999641	13.895155	-1.976360	1.546767	3.020700	0.000000	0.259057	0.000000	0.000022	0.000003	0.000000	0.000000
17.612863	21.864638	12.497985	-1.400239	1.012911	3.137873	0.000000	0.167134	0.000000	0.000024	0.000002	0.000000	0.000000
18.161923	23.038589	11.644231	-0.725213	0.551203	3.203687	0.000000	0.072248	0.000000	0.000025	0.000001	0.000000	0.000000
18.710983	23.438571	11.273084	0.001040	0.128755	3.216973	0.000000	-0.023920	0.000000	0.000025	0.000001	0.000000	0.000000
19.009556	23.478329	11.186720	-0.072973	0.131055	3.212340	0.000000	-0.015517	0.000000	0.000026	0.000001	0.000000	0.000000
19.342889	23.531736	11.109453	-0.087246	0.100746	3.207168	0.000000	-0.015517	0.000000	0.000026	0.000001	0.000000	0.000000
19.676223	23.594657	11.052392	-0.101519	0.070437	3.201995	0.000000	-0.015517	0.000000	0.000026	0.000001	0.000000	0.000000
20.010806	23.667677	11.015301	-0.233108	0.094591	3.196823	0.000000	0.000322	0.000000	0.000026	0.000001	0.000000	0.000000
20.308129	23.810232	10.967150	-0.308551	0.096006	3.196918	0.000000	0.008673	0.000000	0.000026	0.000001	0.000000	0.000000
20.857189	23.738382	11.083673	0.438636	-0.309481	3.175462	0.000000	-0.086713	0.000000	0.000027	-0.000000	0.000000	0.000000
21.406249	22.858258	11.654888	1.154840	-0.737012	3.101980	0.000000	-0.180561	0.000000	0.000026	-0.000001	0.000000	0.000000
21.955309	21.232026	12.721484	1.789472	-1.217038	2.977774	0.000000	-0.271206	0.000000	0.000026	-0.000002	0.000000	0.000000
22.504369	18.974557	14.359430	2.297704	-1.783752	2.805048	0.000000	-0.357041	0.000000	0.000024	-0.000003	0.000000	0.000000
22.950329	17.195381	15.830094	1.705917	-1.500084	2.663116	0.000000	-0.279835	0.000000	0.000023	-0.000002	0.000000	0.000000
23.391289	15.920250	17.002704	1.196766	-1.149016	2.556041	0.000000	-0.206272	0.000000	0.000023	-0.000001	0.000000	0.000000
23.832249	15.068434	17.841375	0.742291	-0.745669	2.480857	0.000000	-0.135057	0.000000	0.000022	-0.000001	0.000000	0.000000
24.273209	14.601016	18.307950	0.321730	-0.308394	2.436707	0.000000	-0.065381	0.000000	0.000022	-0.000000	0.000000	0.000000
24.715418	14.496763	18.380955	-0.048676	0.097777	2.423084	0.000000	-0.002391	0.000000	0.000022	0.000000	0.000000	0.000000
25.012741	14.531820	18.327668	-0.069234	0.081447	2.422373	0.000000	-0.002391	0.000000	0.000022	0.000000	0.000000	0.000000
25.346075	14.585659	18.279473	-0.092283	0.063139	2.421576	0.000000	-0.002391	0.000000	0.000022	0.000000	0.000000	0.000000
25.679408	14.654864	18.243483	-0.115331	0.044831	2.420779	0.000000	-0.002391	0.000000	0.000022	0.000000	0.000000	0.000000
26.013991	14.739481	18.220002	-0.018889	-0.121356	2.419955	0.000000	-0.022023	0.000000	0.000022	0.000000	0.000000	0.000000
26.311314	14.756713	18.297089	-0.002888	-0.182775	2.413407	0.000000	-0.027940	0.000000	0.000022	0.000000	0.000000	0.000000
26.752274	14.941054	18.259871	-0.416743	0.266855	2.416196	0.000000	0.040602	0.000000	0.000023	0.000001	0.000000	0.000000
27.193234	15.497367	17.829976	-0.849638	0.704343	2.449282	0.000000	0.109607	0.000000	0.000023	0.000001	0.000000	0.000000
27.634194	16.451070	17.026963	-1.321351	1.109784	2.513043	0.000000	0.179861	0.000000	0.000024	0.000002	0.000000	0.000000
28.075154	17.845732	15.887368	-1.853433	1.464730	2.608204	0.000000	0.252162	0.000000	0.000025	0.000002	0.000000	0.000000
28.521114	19.769301	14.445874	-2.475165	1.753944	2.737452	0.000000	0.327779	0.000000	0.000026	0.000003	0.000000	0.000000
29.070174	22.214160	12.839844	-1.951283	1.188373	2.894758	0.000000	0.244384	0.000000	0.000027	0.000002	0.000000	0.000000
29.619234	24.004182	11.805034	-1.289573	0.707446	3.005017	0.000000	0.156655	0.000000	0.000028	0.000001	0.000000	0.000000
30.168294	25.012928	11.267735	-0.536773	0.276910	3.066273	0.000000	0.066147	0.000000	0.000029	0.000000	0.000000	0.000000
30.717354	25.169144	11.189677	0.253941	-0.133903	3.077438	0.000000	-0.025535	0.000000	0.000029	-0.000001	0.000000	0.000000
31.015927	25.060432	11.260236	0.175912	-0.131649	3.072215	0.000000	-0.017496	0.000000	0.000029	-0.000000	0.000000	0.000000
31.349260	24.947728	11.358041	0.162199	-0.161765	3.066383	0.000000	-0.017496	0.000000	0.000028	-0.000000	0.000000	0.000000
31.682593	24.844166	11.475922	0.148487	-0.191880	3.060551	0.000000	-0.017496	0.000000	0.000028	-0.000000	0.000000	0.000000
32.017177	24.749409	11.614436	0.134722	-0.222109	3.054697	0.000000	-0.017496	0.000000	0.000028	-0.000000	0.000000	0.000000
32.314499	24.672934	11.754499	0.058040	-0.218266	3.049495	0.000000	-0.009530	0.000000	0.000028	-0.000000	0.000000	0.000000
32.863559	24.186445	12.233358	0.822754	-0.659023	3.019382	0.000000	-0.099999	0.000000	0.000028	-0.000001	0.000000	0.000000
33.412619	22.887305	13.219002	1.529353	-1.146721	2.940011	0.000000	-0.188695	0.000000	0.000027	-0.000002	0.000000	0.000000
33.961679	20.867280	14.781639	2.127926	-1.716098	2.812790	0.000000	-0.274043	0.000000	0.000025	-0.000003	0.000000	0.000000
34.510739	18.269055	17.032570	2.576192	-2.407708	2.639975	0.000000	-0.354531	0.000000	0.000023	-0.000004	0.000000	0.000000
34.956699	16.248780	19.045974	1.970206	-2.088206	2.498211	0.000000	-0.281605	0.000000	0.000022	-0.000003	0.000000	0.000000
35.397659	14.742241	20.711488	1.459251	-1.674436	2.389416	0.000000	-0.212315	0.000000	0.000021	-0.000003	0.000000	0.000000
35.838619	13.655333	21.976972	1.014966	-1.184481	2.310614	0.000000	-0.145443	0.000000	0.000019	-0.000002	0.000000	0.000000
36.279579	12.938398	22.784848	0.617051	-0.640633	2.260906	0.000000	-0.080227	0.000000	0.000019	-0.000002	0.000000	0.000000
36.721789	12.557986	23.098670	0.278013	-0.124325	2.239701	0.000000	-0.021416	0.000000	0.000018	-0.000001	0.000000	0.000000
37.019112	12.400250	23.176486	0.252507	-0.137396	2.233333	0.000000	-0.021416	0.000000	0.000018	-0.000001	0.000000	0.000000
37.352445	12.241444	23.272967	0.223912	-0.152049	2.226195	0.000000	-0.021416	0.000000	0.000017	-0.000001	0.000000	0.000000
37.685779	12.101701	23.379218	0.195317	-0.166703	2.219057	0.000000	-0.021416	0.000000	0.000017	-0.000001	0.000000	0.000000
38.020362	11.980605	23.495692	0.166615	-0.181412	2.211891	0.000000	-0.021416	0.000000	0.000016	-0.000001	0.000000	0.000000
38.317684	11.889112	23.607454	0.170260	-0.252367	2.205524	0.000000	-0.026824	0.000000	0.000016	-0.000001	0.000000	0.000000
38.758644	11.890503	23.568528	-0.173427	0.340307	2.207623	0.000000	0.036350	0.000000	0.000016	-0.000001	0.000000	0.000000
39.199604	12.197333	23.011768	-0.525037	0.917497	2.237644	0.000000	0.099939	0.000000	0.000015	-0.000000	0.000000	0.000000
39.640564	12.823621	21.962507	-0.900634	1.452941	2.295928	0.000000	0.164665	0.000000	0.000015	-0.000000	0.000000	0.000000
40.081524	13.797980	20.468484	-1.317379	1.922278	2.383140	0.000000	0.231267	0.000000	0.000015	0.000000	0.000000	0.000000
40.527484	15.182503	18.575101	-1.798139	2.305439	2.501745	0.000000	0.300908	0.000000	0.000016	0.000001	0.000000	0.000000
41.076544	16.949214	16.447352	-1.400513	1.592692	2.646433	0.000000	0.225355	0.000000	0.000016	0.000000	0.000000	0.000000
41.625604	18.222043	15.035771	-0.903961	0.993388	2.748478	0.000000	0.145805	0.000000	0.000016	-0.000000	0.000000	0.000000
42.174664	18.911084	14.239814	-0.343558	0.464841	2.806070	0.000000	0.063668	0.000000	0.000016	-0.000001	0.000000	0.000000
42.723724	18.967668	14.002786	0.241112	-0.030596	2.818187	0.000000	-0.019598	0.000000	0.000015	-0.000001	0.000000	0.000000
43.022297	18.858151	14.005577	0.175241	-0.015337	2.814534	0.000000	-0.012235	0.000000	0.000015	-0.000001	0.000000	0.000000
43.502297	18.702512	14.036755	0.149006	-0.049617	2.808662	0.000000	-0.012235	0.000000	0.000014	-0.000001	0.000000	0.000000
43.982297	18.572059	14.100841	0.122771	-0.083897	2.802789	0.000000	-0.012235	0.000000	0.000014	-0.000001	0.000000	0.000000
44.462297	18.466791	14.197837	0.096536	-0.118177	2.796917	0.000000	-0.012235	0.000000	0.000013	-0.000001	0.000000	0.000000
44.942297	18.386709	14.327741	0.070302	-0.152457	2.791045	0.000000	-0.012235	0.000000	0.000012	-0.000001	0.000000	0.000000
45.423547	18.331929	14.490842	-0.046828	-0.115030	2.785174	0.000000	0.001564	0.000000	0.000012	-0.000001	0.000000	0.000000
45.720870	18.364608	14.565425	-0.111061	-0.097766	2.785640	0.000000	0.008842	0.000000	0.000011	-0.000001	0.000000	0.000000
46.269930	18.177350	14.954439	0.450094	-0.614925	2.767924	0.000000	-0.073279	0.000000	0.000011	-0.000001	0.000000	0.000000
46.818990	17.387765	15.931930	0.979458	-1.175883	2.705411	0.000000	-0.154100	0.000000	0.000010	-0.000002	0.000000	0.000000
47.368050	16.051627	17.567523	1.439637	-1.820597	2.599208	0.000000	-0.232187	0.000000	0.000009	-0.000002	0.000000	0.000000
47.917110	14.263314	19.977718	1.798127	-2.594988	2.451200	0.000000	-0.306157	0.000000	0.000007	-0.000002	0.000000	0.000000
48.363070	12.871734	22.120518	1.333343	-2.189728	2.329959	0.000000	-0.237861	0.000000	0.000006	-0.000002	0.000000	0.000000
48.804030	11.876035	23.836138	0.933247	-1.686114	2.239531	0.000000	-0.172671	0.000000	0.000005	-0.000002	0.000000	0.000000
49.244990	11.213126	25.071955	0.575788	-1.105782	2.177390	0.000000	-0.109448	0.000000	0.000005	-0.000002	0.000000	0.000000
49.685950	10.852719	25.771741	0.244634	-0.475139	2.142825	0.000000	-0.047472	0.000000	0.000004	-0.000002	0.000000	0.000000
50.128160	10.778472	25.903371	-0.049027	0.113553	2.135456	0.000000	0.008727	0.000000	0.000003	-0.000002	0.000000	0.000000
50.425482	10.815848	25.839304	-0.076678	0.101927	2.138052	0.000000	0.008727	0.000000	0.000002	-0.000002	0.000000	0.000000
50.758816	10.877300	25.775697	-0.107679	0.088893	2.140961	0.000000	0.008727	0.000000	0.000002	-0.000002	0.000000	0.000000
51.092149	10.959419	25.720780	-0.138679	0.075859	2.143871	0.000000	0.008727	0.000000	0.000001	-0.000002	0.000000	0.000000
51.426732	11.062405	25.674916	-0.080050	-0.145512	2.146770	0.000000	-0.008689	0.000000	0.000001	-0.000002	0.000000	0.000000
51.724055	11.118048	25.764960	-0.079834	-0.220521	2.144187	0.000000	-0.013947	0.000000	0.000000	-0.000002	0.000000	0.000000
52.165015	11.333646	25.672777	-0.410949	0.428777	2.151626	0.000000	0.047715	0.000000	-0.000001	-0.000002	0.000000	0.000000
52.605975	11.848404	25.014413	-0.760839	1.058566	2.186349	0.000000	0.109920	0.000000	-0.000001	-0.000002	0.000000	0.000000
53.046935	12.685841	23.819822	-1.145489	1.640192	2.248752	0.000000	0.173378	0.000000	-0.000002	-0.000002	0.000000	0.000000
53.487895	13.884217	22.143360	-1.582473	2.147189	2.339545	0.000000	0.238810	0.000000	-0.000003	-0.000002	0.000000	0.000000
53.933855	15.518827	20.036238	-2.095981	2.557830	2.461268	0.000000	0.307360	0.000000	-0.000004	-0.000002	0.000000	0.000000
54.482915	17.623388	17.665131	-1.714355	1.786144	2.609848	0.000000	0.233056	0.000000	-0.000005	-0.000002	0.000000	0.000000
55.031975	19.239499	16.067013	-1.211636	1.141681	2.716433	0.000000	0.154617	0.000000	-0.000006	-0.000002	0.000000	0.000000
55.581035	20.253005	15.128052	-0.623332	0.578538	2.779134	0.000000	0.073436	0.000000	-0.000007	-0.000001	0.000000	0.000000
56.130095	20.592319	14.781369	0.009000	0.056602	2.796837	0.000000	-0.009048	0.000000	-0.000007	-0.000001	0.000000	0.000000
56.428668	20.623413	14.730591	-0.059336	0.074843	2.796318	0.000000	-0.001740	0.000000	-0.000008	-0.000001	0.000000	0.000000
56.762001	20.668377	14.688280	-0.075555	0.052088	2.795739	0.000000	-0.001740	0.000000	-0.000008	-0.000001	0.000000	0.000000
57.095334	20.724153	14.661140	-0.091775	0.029332	2.795159	0.000000	-0.001740	0.000000	-0.000009	-0.000001	0.000000	0.000000
57.429918	20.791014	14.649154	-0.108056	0.006492	2.794578	0.000000	-0.001740	0.000000	-0.000009	-0.000001	0.000000	0.000000
57.727240	20.859570	14.651329	-0.177030	0.024479	2.794061	0.000000	0.005561	0.000000	-0.000009	-0.000001	0.000000	0.000000
58.276300	20.698137	14.905735	0.469306	-0.490563	2.774475	0.000000	-0.076802	0.000000	-0.000010	-0.000001	0.000000	0.000000
58.825360	19.841033	15.741473	1.082492	-1.040546	2.709974	0.000000	-0.157803	0.000000	-0.000010	-0.000001	0.000000	0.000000
59.374420	18.348800	17.218070	1.619216	-1.664646	2.601703	0.000000	-0.236005	0.000000	-0.000011	-0.000000	0.000000	0.000000
59.923480	16.326841	19.440700	2.041567	-2.407314	2.451582	0.000000	-0.310021	0.000000	-0.000011	0.000000	0.000000	0.000000
60.369440	14.744316	21.416150	1.519580	-2.003646	2.328616	0.000000	-0.241737	0.000000	-0.000011	-0.000000	0.000000	0.000000
60.810400	13.606196	22.971531	1.071216	-1.510191	2.236467	0.000000	-0.176605	0.000000	-0.000011	-0.000000	0.000000	0.000000
61.251360	12.840503	24.059646	0.671794	-0.948024	2.172570	0.000000	-0.113483	0.000000	-0.000011	-0.000001	0.000000	0.000000
61.692320	12.412254	24.630988	0.303064	-0.342723	2.136195	0.000000	-0.051654	0.000000	-0.000012	-0.000001	0.000000	0.000000
62.134530	12.301938	24.659016	-0.021750	0.217640	2.126935	0.000000	0.004370	0.000000	-0.000012	-0.000001	0.000000	0.000000
62.431853	12.322061	24.533352	-0.045930	0.205012	2.128235	0.000000	0.004370	0.000000	-0.000013	-0.000001	0.000000	0.000000
62.765186	12.361718	24.401397	-0.073039	0.190854	2.129691	0.000000	0.004370	0.000000	-0.000013	-0.000001	0.000000	0.000000
63.098520	12.419446	24.278880	-0.100148	0.176696	2.131148	0.000000	0.004370	0.000000	-0.000014	-0.000001	0.000000	0.000000
63.433103	12.495566	24.165396	-0.127358	0.162485	2.132611	0.000000	0.004370	0.000000	-0.000014	-0.000001	0.000000	0.000000
63.730426	12.578489	24.072530	-0.120688	0.090815	2.133910	0.000000	-0.000864	0.000000	-0.000014	-0.000001	0.000000	0.000000
64.171386	12.845146	23.727340	-0.486328	0.689021	2.147071	0.000000	0.060607	0.000000	-0.000015	-0.000002	0.000000	0.000000
64.612346	13.442811	22.866441	-0.874186	1.255877	2.187463	0.000000	0.122768	0.000000	-0.000016	-0.000002	0.000000	0.000000
65.053306	14.398788	21.529005	-1.301984	1.765592	2.255549	0.000000	0.186327	0.000000	-0.000017	-0.000003	0.000000	0.000000
65.494266	15.756752	19.775883	-1.789265	2.194974	2.352102	0.000000	0.252008	0.000000	-0.000018	-0.000003	0.000000	0.000000
65.940226	17.601907	17.662039	-2.362984	2.525237	2.479795	0.000000	0.320962	0.000000	-0.000020	-0.000003	0.000000	0.000000
66.489286	19.967366	15.297371	-1.919713	1.806943	2.635658	0.000000	0.245939	0.000000	-0.000021	-0.000003	0.000000	0.000000
67.038346	21.768266	13.646596	-1.340844	1.217353	2.749067	0.000000	0.166553	0.000000	-0.000023	-0.000002	0.000000	0.000000
67.587406	22.877403	12.592133	-0.667264	0.714472	2.818013	0.000000	0.084214	0.000000	-0.000024	-0.000001	0.000000	0.000000
68.136466	23.216432	12.058875	0.053447	0.262481	2.841271	0.000000	0.000381	0.000000	-0.000024	-0.000001	0.000000	0.000000
68.435038	23.224586	11.891348	-0.020086	0.267096	2.843602	0.000000	0.007806	0.000000	-0.000024	-0.000001	0.000000	0.000000
68.768372	23.242763	11.723295	-0.034445	0.237064	2.846204	0.000000	0.007806	0.000000	-0.000024	-0.000001	0.000000	0.000000
69.101705	23.270512	11.575263	-0.048803	0.207033	2.848806	0.000000	0.007806	0.000000	-0.000025	-0.000001	0.000000	0.000000
69.436288	23.307992	11.446809	-0.063215	0.176889	2.851418	0.000000	0.007806	0.000000	-0.000025	-0.000001	0.000000	0.000000
69.733611	23.349390	11.349587	-0.137043	0.179763	2.853739	0.000000	0.015264	0.000000	-0.000025	-0.000001	0.000000	0.000000
70.282671	23.098857	11.379533	0.590636	-0.234626	2.838935	0.000000	-0.069111	0.000000	-0.000025	0.000000	0.000000	0.000000
