#ParticleID	Turn	x[m]	xp	y[m]	yp	z[m]	dE[GeV]# s	beta_x	beta_y	alpha_x	alpha_y	D_x	D_y	D_px	D_py	orbit_x	orbit_px	orbit_y	orbit_py
0.300000	11.818391	25.000076	-0.011538	-0.027465	2.618051	0.000000	0.000036	0.000000	-0.000000	0.000001	0.000000	0.000000
0.601250	11.833022	25.020257	-0.037032	-0.039524	2.618062	0.000000	0.000036	0.000000	-0.000000	0.000001	0.000000	0.000000
0.898573	11.862524	25.047298	-0.033102	-0.112849	2.618072	0.000000	-0.006384	0.000000	0.000000	0.000001	0.000000	0.000000
1.339533	12.043902	24.868989	-0.379784	0.515675	2.631550	0.000000	0.067572	0.000000	0.000001	0.000001	0.000000	0.000000
1.780493	12.537493	24.144641	-0.743818	1.120736	2.677778	0.000000	0.142298	0.000000	0.000001	0.000001	0.000000	0.000000
2.221453	13.365848	22.907211	-1.141834	1.674804	2.757282	0.000000	0.218645	0.000000	0.000001	0.000001	0.000000	0.000000
2.662413	14.566811	21.213002	-1.592017	2.152670	2.870969	0.000000	0.297482	0.000000	0.000002	0.000001	0.000000	0.000000
3.108373	16.216012	19.114250	-2.119228	2.533723	3.021995	0.000000	0.380196	0.000000	0.000002	0.000001	0.000000	0.000000
3.657433	18.330822	16.757071	-1.709663	1.784736	3.205473	0.000000	0.287158	0.000000	0.000003	0.000001	0.000000	0.000000
4.206493	19.926501	15.148155	-1.179335	1.162872	3.336392	0.000000	0.189026	0.000000	0.000003	0.000001	0.000000	0.000000
4.755553	20.890340	14.172901	-0.565706	0.623837	3.412430	0.000000	0.087542	0.000000	0.000004	0.000001	0.000000	0.000000
5.304613	21.154256	13.761846	0.087883	0.129236	3.432237	0.000000	-0.015496	0.000000	0.000004	0.000001	0.000000	0.000000
5.603185	21.139000	13.669857	0.018483	0.142904	3.430288	0.000000	-0.006528	0.000000	0.000004	0.000001	0.000000	0.000000
5.936519	21.131936	13.582882	0.002709	0.118021	3.428112	0.000000	-0.006528	0.000000	0.000004	0.000001	0.000000	0.000000
6.269852	21.135388	13.512495	-0.013065	0.093139	3.425936	0.000000	-0.006528	0.000000	0.000005	0.000001	0.000000	0.000000
6.604435	21.149428	13.458526	-0.028898	0.068163	3.423751	0.000000	-0.006528	0.000000	0.000005	0.000001	0.000000	0.000000
6.901758	21.170795	13.424592	-0.098281	0.081043	3.421810	0.000000	0.002412	0.000000	0.000005	0.000001	0.000000	0.000000
7.450818	20.917887	13.596332	0.556174	-0.395678	3.394932	0.000000	-0.100173	0.000000	0.000005	0.000000	0.000000	0.000000
7.999878	19.963728	14.303881	1.171344	-0.900583	3.312134	0.000000	-0.200981	0.000000	0.000006	0.000000	0.000000	0.000000
8.548938	18.375715	15.597635	1.703775	-1.469634	3.174885	0.000000	-0.298224	0.000000	0.000006	0.000000	0.000000	0.000000
9.097998	16.266017	17.569747	2.115861	-2.143364	2.985620	0.000000	-0.390178	0.000000	0.000006	-0.000000	0.000000	0.000000
9.543958	14.620039	19.327014	1.588125	-1.780395	2.829924	0.000000	-0.308467	0.000000	0.000006	0.000000	0.000000	0.000000
9.984918	13.422805	20.707201	1.137238	-1.337653	2.711149	0.000000	-0.230754	0.000000	0.000006	0.000000	0.000000	0.000000
10.425878	12.598890	21.668492	0.738307	-0.834048	2.626032	0.000000	-0.155669	0.000000	0.000006	0.000000	0.000000	0.000000
10.866838	12.110653	22.167150	0.373108	-0.292494	2.573601	0.000000	-0.082357	0.000000	0.000006	0.000001	0.000000	0.000000
11.309048	11.935651	22.179965	0.054118	0.207918	2.553241	0.000000	-0.016244	0.000000	0.000006	0.000001	0.000000	0.000000
11.606371	11.910898	22.060486	0.029135	0.193934	2.548411	0.000000	-0.016244	0.000000	0.000006	0.000001	0.000000	0.000000
12.086371	11.902289	21.885146	-0.011199	0.171357	2.540614	0.000000	-0.016244	0.000000	0.000007	0.000001	0.000000	0.000000
12.566371	11.932400	21.731480	-0.051532	0.148780	2.532816	0.000000	-0.016244	0.000000	0.000007	0.000001	0.000000	0.000000
13.046371	12.001231	21.599487	-0.091866	0.126204	2.525019	0.000000	-0.016244	0.000000	0.000007	0.000001	0.000000	0.000000
13.526371	12.108782	21.489168	-0.132199	0.103627	2.517221	0.000000	-0.016244	0.000000	0.000008	0.000001	0.000000	0.000000
14.007621	12.255485	21.400321	-0.172638	0.080992	2.509404	0.000000	-0.016244	0.000000	0.000008	0.000001	0.000000	0.000000
14.304943	12.365571	21.356317	-0.167299	0.014639	2.504574	0.000000	-0.022385	0.000000	0.000008	0.000001	0.000000	0.000000
14.745903	12.671701	21.109653	-0.529567	0.542613	2.510336	0.000000	0.048545	0.000000	0.000009	0.000001	0.000000	0.000000
15.186863	13.306742	20.406508	-0.916030	1.045897	2.547467	0.000000	0.120029	0.000000	0.000009	0.000001	0.000000	0.000000
15.627823	14.299710	19.278874	-1.344343	1.501595	2.616391	0.000000	0.192880	0.000000	0.000010	0.000001	0.000000	0.000000
16.068783	15.695969	17.778059	-1.834076	1.888971	2.717893	0.000000	0.267928	0.000000	0.000010	0.000002	0.000000	0.000000
16.514743	17.582966	15.950845	-2.412360	2.191146	2.854824	0.000000	0.346489	0.000000	0.000011	0.000002	0.000000	0.000000
17.063803	20.006481	13.910550	-1.975445	1.546765	3.021332	0.000000	0.259143	0.000000	0.000012	0.000001	0.000000	0.000000
17.612863	21.870285	12.513574	-1.398994	1.012557	3.138548	0.000000	0.167199	0.000000	0.000013	0.000001	0.000000	0.000000
18.161923	23.042727	11.660414	-0.723726	0.550472	3.204391	0.000000	0.072290	0.000000	0.000013	0.000001	0.000000	0.000000
18.710983	23.440991	11.290299	0.002663	0.127595	3.217695	0.000000	-0.023901	0.000000	0.000013	0.000000	0.000000	0.000000
19.009556	23.479786	11.204584	-0.071358	0.129993	3.213068	0.000000	-0.015495	0.000000	0.000013	0.000000	0.000000	0.000000
19.342889	23.532115	11.128005	-0.085627	0.099741	3.207903	0.000000	-0.015495	0.000000	0.000013	0.000000	0.000000	0.000000
19.676223	23.593956	11.071596	-0.099896	0.069488	3.202738	0.000000	-0.015495	0.000000	0.000014	0.000000	0.000000	0.000000
20.010806	23.665888	11.035120	-0.231472	0.093797	3.197574	0.000000	0.000348	0.000000	0.000014	0.000000	0.000000	0.000000
20.308129	23.807468	10.987425	-0.306906	0.095322	3.197677	0.000000	0.008702	0.000000	0.000014	0.000000	0.000000	0.000000
20.857189	23.733871	11.105014	0.440154	-0.310750	3.176230	0.000000	-0.086709	0.000000	0.000014	-0.000000	0.000000	0.000000
21.406249	22.852198	11.677984	1.156125	-0.738956	3.102743	0.000000	-0.180582	0.000000	0.000014	-0.000001	0.000000	0.000000
21.955309	21.224727	12.747146	1.790432	-1.219796	2.978519	0.000000	-0.271251	0.000000	0.000013	-0.000001	0.000000	0.000000
22.504369	18.966414	14.388654	2.298272	-1.787520	2.805761	0.000000	-0.357110	0.000000	0.000013	-0.000001	0.000000	0.000000
22.950329	17.186689	15.862384	1.706586	-1.503162	2.663802	0.000000	-0.279886	0.000000	0.000012	-0.000001	0.000000	0.000000
23.391289	15.910913	17.037352	1.197566	-1.151266	2.556709	0.000000	-0.206305	0.000000	0.000012	-0.000001	0.000000	0.000000
23.832249	15.058321	17.877604	0.743259	-0.746989	2.481513	0.000000	-0.135073	0.000000	0.000011	-0.000000	0.000000	0.000000
24.273209	14.589960	18.344910	0.322910	-0.308724	2.437360	0.000000	-0.065380	0.000000	0.000011	-0.000000	0.000000	0.000000
24.715418	14.484549	18.417760	-0.047257	0.098357	2.423741	0.000000	-0.002375	0.000000	0.000011	0.000000	0.000000	0.000000
25.012741	14.518767	18.364119	-0.067829	0.082058	2.423035	0.000000	-0.002375	0.000000	0.000011	0.000000	0.000000	0.000000
25.346075	14.571674	18.315505	-0.090894	0.063784	2.422243	0.000000	-0.002375	0.000000	0.000011	0.000000	0.000000	0.000000
25.679408	14.639958	18.279073	-0.113958	0.045511	2.421451	0.000000	-0.002375	0.000000	0.000011	0.000000	0.000000	0.000000
26.013991	14.723663	18.255126	-0.017661	-0.120926	2.420632	0.000000	-0.022013	0.000000	0.000011	0.000000	0.000000	0.000000
26.311314	14.740171	18.331947	-0.001718	-0.182402	2.414087	0.000000	-0.027932	0.000000	0.000011	-0.000000	0.000000	0.000000
26.752274	14.923298	18.293984	-0.415150	0.268166	2.416884	0.000000	0.040628	0.000000	0.000012	0.000000	0.000000	0.000000
27.193234	15.477993	17.862540	-0.847549	0.706531	2.449985	0.000000	0.109650	0.000000	0.000012	0.000001	0.000000	0.000000
27.634194	16.429599	17.057245	-1.318670	1.112751	2.513769	0.000000	0.179922	0.000000	0.000012	0.000001	0.000000	0.000000
28.075154	17.821592	15.914739	-1.850037	1.468340	2.608962	0.000000	0.252243	0.000000	0.000013	0.000001	0.000000	0.000000
28.521114	19.741752	14.469797	-2.470892	1.758035	2.738251	0.000000	0.327880	0.000000	0.000013	0.000002	0.000000	0.000000
29.070174	22.182291	12.859809	-1.947735	1.191536	2.895606	0.000000	0.244458	0.000000	0.000014	0.000001	0.000000	0.000000
29.619234	23.968931	11.821929	-1.286999	0.709908	3.005898	0.000000	0.156701	0.000000	0.000014	0.000001	0.000000	0.000000
30.168294	24.975472	11.282230	-0.535356	0.278845	3.067171	0.000000	0.066164	0.000000	0.000015	0.000000	0.000000	0.000000
30.717354	25.130818	11.202272	0.254102	-0.132357	3.078339	0.000000	-0.025547	0.000000	0.000015	-0.000000	0.000000	0.000000
31.015927	25.021960	11.271874	0.176145	-0.130027	3.073112	0.000000	-0.017504	0.000000	0.000014	-0.000000	0.000000	0.000000
31.349260	24.909109	11.368583	0.162410	-0.160099	3.067278	0.000000	-0.017504	0.000000	0.000014	-0.000000	0.000000	0.000000
31.682593	24.805414	11.485340	0.148675	-0.190171	3.061443	0.000000	-0.017504	0.000000	0.000014	-0.000000	0.000000	0.000000
32.017177	24.710539	11.622696	0.134888	-0.220356	3.055586	0.000000	-0.017504	0.000000	0.000014	-0.000000	0.000000	0.000000
32.314499	24.633970	11.761705	0.058281	-0.216452	3.050382	0.000000	-0.009535	0.000000	0.000014	-0.000000	0.000000	0.000000
32.863559	24.147928	12.238639	0.821705	-0.657312	3.020258	0.000000	-0.100033	0.000000	0.000014	-0.000001	0.000000	0.000000
33.412619	22.850620	13.222405	1.527088	-1.144991	2.940860	0.000000	-0.188756	0.000000	0.000013	-0.000001	0.000000	0.000000
33.961679	20.833681	14.783074	2.124605	-1.714225	2.813597	0.000000	-0.274131	0.000000	0.000013	-0.000002	0.000000	0.000000
34.510739	18.239579	17.031809	2.572050	-2.405559	2.640726	0.000000	-0.354644	0.000000	0.000012	-0.000002	0.000000	0.000000
34.956699	16.222588	19.043204	1.966961	-2.085866	2.498914	0.000000	-0.281700	0.000000	0.000011	-0.000002	0.000000	0.000000
35.397659	14.718574	20.706609	1.456748	-1.672015	2.390081	0.000000	-0.212392	0.000000	0.000010	-0.000001	0.000000	0.000000
35.838619	13.633591	21.969962	1.013089	-1.182087	2.311248	0.000000	-0.145503	0.000000	0.000010	-0.000001	0.000000	0.000000
36.279579	12.918067	22.775780	0.615716	-0.638376	2.261517	0.000000	-0.080271	0.000000	0.000009	-0.000001	0.000000	0.000000
36.721789	12.538620	23.087705	0.277113	-0.122286	2.240295	0.000000	-0.021447	0.000000	0.000009	-0.000001	0.000000	0.000000
37.019112	12.381428	23.164308	0.251579	-0.135357	2.233918	0.000000	-0.021447	0.000000	0.000009	-0.000001	0.000000	0.000000
37.352445	12.223250	23.259430	0.222953	-0.150010	2.226770	0.000000	-0.021447	0.000000	0.000009	-0.000001	0.000000	0.000000
37.685779	12.084157	23.364321	0.194327	-0.164664	2.219621	0.000000	-0.021447	0.000000	0.000008	-0.000001	0.000000	0.000000
38.020362	11.963733	23.479430	0.165594	-0.179372	2.212445	0.000000	-0.021447	0.000000	0.000008	-0.000001	0.000000	0.000000
38.317684	11.872855	23.589979	0.169174	-0.250288	2.206069	0.000000	-0.026857	0.000000	0.000008	-0.000001	0.000000	0.000000
38.758644	11.875042	23.549430	-0.174153	0.341894	2.208156	0.000000	0.036332	0.000000	0.000008	-0.000000	0.000000	0.000000
39.199604	12.182367	22.991515	-0.525437	0.918520	2.238171	0.000000	0.099934	0.000000	0.000008	-0.000000	0.000000	0.000000
39.640564	12.808872	21.941619	-0.900727	1.453354	2.296456	0.000000	0.164674	0.000000	0.000007	-0.000000	0.000000	0.000000
40.081524	13.783179	20.447509	-1.317168	1.922062	2.383675	0.000000	0.231289	0.000000	0.000007	0.000000	0.000000	0.000000
40.527484	15.167375	18.554599	-1.797614	2.304599	2.502293	0.000000	0.300945	0.000000	0.000008	0.000000	0.000000	0.000000
41.076544	16.933829	16.427470	-1.400573	1.592398	2.646997	0.000000	0.225373	0.000000	0.000008	0.000000	0.000000	0.000000
41.625604	18.207046	15.015923	-0.904603	0.993620	2.749046	0.000000	0.145805	0.000000	0.000008	-0.000000	0.000000	0.000000
42.174664	18.897092	14.219417	-0.344736	0.465615	2.806633	0.000000	0.063650	0.000000	0.000007	-0.000000	0.000000	0.000000
42.723724	18.955227	13.981219	0.239482	-0.029226	2.818735	0.000000	-0.019634	0.000000	0.000007	-0.000001	0.000000	0.000000
43.022297	18.846667	13.983235	0.173638	-0.014054	2.815071	0.000000	-0.012270	0.000000	0.000007	-0.000001	0.000000	0.000000
43.502297	18.692568	14.013207	0.147402	-0.048387	2.809182	0.000000	-0.012270	0.000000	0.000007	-0.000001	0.000000	0.000000
43.982297	18.563656	14.076139	0.121165	-0.082721	2.803293	0.000000	-0.012270	0.000000	0.000006	-0.000001	0.000000	0.000000
44.462297	18.459931	14.172031	0.094928	-0.117055	2.797404	0.000000	-0.012270	0.000000	0.000006	-0.000001	0.000000	0.000000
44.942297	18.381394	14.300883	0.068692	-0.151388	2.791515	0.000000	-0.012270	0.000000	0.000006	-0.000001	0.000000	0.000000
45.423547	18.328164	14.462981	-0.048421	-0.114153	2.785628	0.000000	0.001532	0.000000	0.000005	-0.000001	0.000000	0.000000
45.720870	18.361792	14.537054	-0.112655	-0.096997	2.786083	0.000000	0.008811	0.000000	0.000005	-0.000001	0.000000	0.000000
46.269930	18.176321	14.924746	0.448452	-0.613272	2.768347	0.000000	-0.073324	0.000000	0.000005	-0.000001	0.000000	0.000000
46.818990	17.388515	15.899886	0.977882	-1.173229	2.705805	0.000000	-0.154158	0.000000	0.000004	-0.000001	0.000000	0.000000
47.368050	16.054019	17.531931	1.438240	-1.816752	2.599566	0.000000	-0.232257	0.000000	0.000004	-0.000001	0.000000	0.000000
47.917110	14.267096	19.937129	1.797007	-2.589679	2.451516	0.000000	-0.306238	0.000000	0.000003	-0.000001	0.000000	0.000000
48.363070	12.876495	22.075582	1.332261	-2.185330	2.330240	0.000000	-0.237934	0.000000	0.000003	-0.000001	0.000000	0.000000
48.804030	11.881753	23.787798	0.932151	-1.682822	2.239781	0.000000	-0.172738	0.000000	0.000002	-0.000001	0.000000	0.000000
49.244990	11.219835	25.021257	0.574628	-1.103747	2.177611	0.000000	-0.109509	0.000000	0.000002	-0.000001	0.000000	0.000000
49.685950	10.860499	25.719838	0.243358	-0.474452	2.143021	0.000000	-0.047527	0.000000	0.000001	-0.000001	0.000000	0.000000
50.128160	10.787454	25.851474	-0.050456	0.112985	2.135629	0.000000	0.008676	0.000000	0.000001	-0.000001	0.000000	0.000000
50.425482	10.825673	25.787751	-0.078088	0.101337	2.138209	0.000000	0.008676	0.000000	0.000001	-0.000001	0.000000	0.000000
50.758816	10.888058	25.724546	-0.109067	0.088278	2.141101	0.000000	0.008676	0.000000	0.000000	-0.000001	0.000000	0.000000
51.092149	10.971096	25.670046	-0.140045	0.075220	2.143994	0.000000	0.008676	0.000000	0.000000	-0.000001	0.000000	0.000000
51.426732	11.074989	25.624617	-0.081293	-0.145768	2.146875	0.000000	-0.008740	0.000000	-0.000000	-0.000001	0.000000	0.000000
51.724055	11.131364	25.714821	-0.081019	-0.220678	2.144277	0.000000	-0.013999	0.000000	-0.000000	-0.000001	0.000000	0.000000
52.165015	11.348149	25.623361	-0.412467	0.427299	2.151693	0.000000	0.047665	0.000000	-0.000001	-0.000001	0.000000	0.000000
52.605975	11.864417	24.966860	-0.762758	1.055835	2.186394	0.000000	0.109872	0.000000	-0.000001	-0.000001	0.000000	0.000000
53.046935	12.703756	23.775188	-1.147899	1.636331	2.248775	0.000000	0.173330	0.000000	-0.000002	-0.000001	0.000000	0.000000
53.487895	13.904513	22.102564	-1.585483	2.142375	2.339548	0.000000	0.238762	0.000000	-0.000002	-0.000001	0.000000	0.000000
53.933855	15.542128	20.000084	-2.099734	2.552279	2.461249	0.000000	0.307313	0.000000	-0.000003	-0.000001	0.000000	0.000000
54.482915	17.650498	17.634278	-1.717498	1.781985	2.609803	0.000000	0.233009	0.000000	-0.000003	-0.000001	0.000000	0.000000
55.031975	19.269621	16.040102	-1.213946	1.138617	2.716363	0.000000	0.154573	0.000000	-0.000004	-0.000001	0.000000	0.000000
55.581035	20.285130	15.104007	-0.624647	0.576351	2.779039	0.000000	0.073394	0.000000	-0.000004	-0.000001	0.000000	0.000000
56.130095	20.625294	14.759317	0.008774	0.055137	2.796720	0.000000	-0.009086	0.000000	-0.000004	-0.000001	0.000000	0.000000
56.428668	20.656567	14.709457	-0.059624	0.073294	2.796189	0.000000	-0.001778	0.000000	-0.000005	-0.000001	0.000000	0.000000
56.762001	20.701714	14.668188	-0.075818	0.050512	2.795597	0.000000	-0.001778	0.000000	-0.000005	-0.000001	0.000000	0.000000
57.095334	20.757658	14.642108	-0.092012	0.027729	2.795004	0.000000	-0.001778	0.000000	-0.000005	-0.000001	0.000000	0.000000
57.429918	20.824668	14.631204	-0.108267	0.004860	2.794409	0.000000	-0.001778	0.000000	-0.000005	-0.000001	0.000000	0.000000
57.727240	20.893343	14.634356	-0.177305	0.022777	2.793881	0.000000	0.005522	0.000000	-0.000005	-0.000001	0.000000	0.000000
58.276300	20.731590	14.890373	0.470161	-0.491812	2.774274	0.000000	-0.076835	0.000000	-0.000006	-0.000000	0.000000	0.000000
58.825360	19.872950	15.727277	1.084417	-1.041433	2.709757	0.000000	-0.157829	0.000000	-0.000006	-0.000000	0.000000	0.000000
59.374420	18.378074	17.204677	1.622076	-1.665232	2.601473	0.000000	-0.236024	0.000000	-0.000006	-0.000000	0.000000	0.000000
59.923480	16.352553	19.427806	2.045159	-2.407641	2.451343	0.000000	-0.310032	0.000000	-0.000006	0.000000	0.000000	0.000000
60.369440	14.767178	21.403757	1.522402	-2.004438	2.328370	0.000000	-0.241755	0.000000	-0.000006	-0.000000	0.000000	0.000000
60.810400	13.626857	22.960027	1.073405	-1.511408	2.236213	0.000000	-0.176629	0.000000	-0.000006	-0.000000	0.000000	0.000000
61.251360	12.859476	24.049382	0.673448	-0.949610	2.172303	0.000000	-0.113515	0.000000	-0.000006	-0.000000	0.000000	0.000000
61.692320	12.429975	24.622260	0.304260	-0.344606	2.135913	0.000000	-0.051693	0.000000	-0.000006	-0.000001	0.000000	0.000000
62.134530	12.318783	24.652054	-0.020918	0.215566	2.126633	0.000000	0.004325	0.000000	-0.000007	-0.000001	0.000000	0.000000
62.431853	12.338401	24.527621	-0.045064	0.202945	2.127919	0.000000	0.004325	0.000000	-0.000007	-0.000001	0.000000	0.000000
62.765186	12.377468	24.397041	-0.072135	0.188795	2.129361	0.000000	0.004325	0.000000	-0.000007	-0.000001	0.000000	0.000000
63.098520	12.434581	24.275894	-0.099206	0.174645	2.130803	0.000000	0.004325	0.000000	-0.000007	-0.000001	0.000000	0.000000
63.433103	12.510058	24.163780	-0.126378	0.160442	2.132250	0.000000	0.004325	0.000000	-0.000008	-0.000001	0.000000	0.000000
63.730426	12.592387	24.072126	-0.119642	0.088785	2.133536	0.000000	-0.000908	0.000000	-0.000008	-0.000001	0.000000	0.000000
64.171386	12.858253	23.728715	-0.485571	0.687033	2.146675	0.000000	0.060553	0.000000	-0.000008	-0.000001	0.000000	0.000000
64.612346	13.455364	22.869518	-0.873684	1.254022	2.187041	0.000000	0.122703	0.000000	-0.000008	-0.000001	0.000000	0.000000
65.053306	14.411001	21.533628	-1.301713	1.763954	2.255095	0.000000	0.186251	0.000000	-0.000009	-0.000001	0.000000	0.000000
65.494266	15.768824	19.781827	-1.789213	2.193627	2.351612	0.000000	0.251921	0.000000	-0.000010	-0.000002	0.000000	0.000000
65.940226	17.614030	17.669030	-2.363150	2.524247	2.479263	0.000000	0.320861	0.000000	-0.000010	-0.000002	0.000000	0.000000
66.489286	19.979392	15.305450	-1.919370	1.805938	2.635074	0.000000	0.245856	0.000000	-0.000011	-0.000001	0.000000	0.000000
67.038346	21.779646	13.655819	-1.340016	1.216262	2.748443	0.000000	0.166490	0.000000	-0.000012	-0.000001	0.000000	0.000000
67.587406	22.887633	12.602635	-0.666010	0.713218	2.817359	0.000000	0.084171	0.000000	-0.000012	-0.000001	0.000000	0.000000
68.136466	23.225089	12.070885	0.055040	0.260974	2.840600	0.000000	0.000360	0.000000	-0.000013	-0.000000	0.000000	0.000000
68.435038	23.232301	11.904227	-0.018505	0.265665	2.842923	0.000000	0.007782	0.000000	-0.000013	-0.000000	0.000000	0.000000
68.768372	23.249422	11.737109	-0.032858	0.235688	2.845518	0.000000	0.007782	0.000000	-0.000013	-0.000000	0.000000	0.000000
69.101705	23.276112	11.589977	-0.047211	0.205710	2.848112	0.000000	0.007782	0.000000	-0.000013	-0.000000	0.000000	0.000000
69.436288	23.312524	11.462390	-0.061617	0.175620	2.850716	0.000000	0.007782	0.000000	-0.000013	-0.000000	0.000000	0.000000
69.733611	23.352971	11.365908	-0.135443	0.178581	2.853030	0.000000	0.015238	0.000000	-0.000013	-0.000000	0.000000	0.000000
70.282671	23.100631	11.397407	0.592307	-0.236288	2.838217	0.000000	-0.069114	0.000000	-0.000013	0.000000	0.000000	0.000000
