#ParticleID	Turn	x[m]	xp	y[m]	yp	z[m]	dE[GeV]# s	beta_x	beta_y	alpha_x	alpha_y	D_x	D_y	D_px	D_py	orbit_x	orbit_px	orbit_y	orbit_py
0.300000	11.807941	25.042579	-0.010409	-0.027015	2.618135	0.000000	0.000004	0.000000	-0.000001	0.000002	0.000000	0.000000
0.601250	11.821899	25.062482	-0.035924	-0.039054	2.618136	0.000000	0.000004	0.000000	-0.000000	0.000002	0.000000	0.000000
0.898573	11.850748	25.089237	-0.032046	-0.112460	2.618136	0.000000	-0.006417	0.000000	0.000000	0.000002	0.000000	0.000000
1.339533	12.031069	24.910098	-0.378432	0.517163	2.631599	0.000000	0.067541	0.000000	0.000001	0.000002	0.000000	0.000000
1.780493	12.523315	24.183976	-0.742108	1.123256	2.677813	0.000000	0.142268	0.000000	0.000002	0.000002	0.000000	0.000000
2.221453	13.349976	22.943908	-1.139689	1.678242	2.757304	0.000000	0.218615	0.000000	0.000002	0.000002	0.000000	0.000000
2.662413	14.548821	21.246318	-1.589339	2.156869	2.870978	0.000000	0.297453	0.000000	0.000003	0.000002	0.000000	0.000000
3.108373	16.195347	19.143549	-2.115888	2.538493	3.021990	0.000000	0.380167	0.000000	0.000004	0.000002	0.000000	0.000000
3.657433	18.306766	16.781794	-1.706862	1.788349	3.205453	0.000000	0.287129	0.000000	0.000005	0.000002	0.000000	0.000000
4.206493	19.899758	15.169426	-1.177272	1.165584	3.336356	0.000000	0.188999	0.000000	0.000006	0.000002	0.000000	0.000000
4.755553	20.861804	14.191598	-0.564525	0.625841	3.412378	0.000000	0.087515	0.000000	0.000007	0.000001	0.000000	0.000000
5.304613	21.124950	13.778663	0.088098	0.130675	3.432172	0.000000	-0.015520	0.000000	0.000007	0.000001	0.000000	0.000000
5.603185	21.109525	13.685784	0.018756	0.144403	3.430215	0.000000	-0.006553	0.000000	0.000008	0.000001	0.000000	0.000000
5.936519	21.102286	13.597803	0.002960	0.119539	3.428030	0.000000	-0.006553	0.000000	0.000008	0.000001	0.000000	0.000000
6.269852	21.105578	13.526399	-0.012836	0.094675	3.425846	0.000000	-0.006553	0.000000	0.000008	0.000001	0.000000	0.000000
6.604435	21.119472	13.471396	-0.028691	0.069717	3.423653	0.000000	-0.006553	0.000000	0.000009	0.000001	0.000000	0.000000
6.901758	21.140723	13.436533	-0.098014	0.082644	3.421704	0.000000	0.002387	0.000000	0.000009	0.000001	0.000000	0.000000
7.450818	20.888076	13.606693	0.555435	-0.394384	3.394813	0.000000	-0.100195	0.000000	0.000010	0.000001	0.000000	0.000000
7.999878	19.935260	14.312945	1.169650	-0.899503	3.312004	0.000000	-0.200999	0.000000	0.000010	0.000001	0.000000	0.000000
8.548938	18.349578	15.605596	1.701248	-1.468691	3.174746	0.000000	-0.298237	0.000000	0.000010	0.000000	0.000000	0.000000
9.097998	16.243034	17.576717	2.112677	-2.142491	2.985475	0.000000	-0.390186	0.000000	0.000010	-0.000000	0.000000	0.000000
9.543958	14.599581	19.333064	1.585627	-1.779212	2.829774	0.000000	-0.308480	0.000000	0.000010	0.000000	0.000000	0.000000
9.984918	13.404293	20.712091	1.135306	-1.336216	2.710993	0.000000	-0.230771	0.000000	0.000010	0.000000	0.000000	0.000000
10.425878	12.581865	21.672027	0.736853	-0.832423	2.625867	0.000000	-0.155690	0.000000	0.000011	0.000001	0.000000	0.000000
10.866838	12.094725	22.169196	0.372065	-0.290756	2.573427	0.000000	-0.082382	0.000000	0.000011	0.000001	0.000000	0.000000
11.309048	11.920481	22.180453	0.053400	0.209693	2.553054	0.000000	-0.016273	0.000000	0.000012	0.000001	0.000000	0.000000
11.606371	11.896164	22.059920	0.028387	0.195699	2.548215	0.000000	-0.016273	0.000000	0.000012	0.000001	0.000000	0.000000
12.086371	11.888296	21.882893	-0.011995	0.173107	2.540404	0.000000	-0.016273	0.000000	0.000012	0.000001	0.000000	0.000000
12.566371	11.919194	21.727555	-0.052376	0.150515	2.532592	0.000000	-0.016273	0.000000	0.000013	0.000001	0.000000	0.000000
13.046371	11.988858	21.593905	-0.092758	0.127923	2.524781	0.000000	-0.016273	0.000000	0.000014	0.000001	0.000000	0.000000
13.526371	12.097289	21.481944	-0.133140	0.105330	2.516969	0.000000	-0.016273	0.000000	0.000014	0.000001	0.000000	0.000000
14.007621	12.244920	21.391464	-0.173626	0.082679	2.509137	0.000000	-0.016273	0.000000	0.000015	0.000001	0.000000	0.000000
14.304943	12.355604	21.346460	-0.168344	0.016345	2.504299	0.000000	-0.022413	0.000000	0.000015	0.000001	0.000000	0.000000
14.745903	12.662566	21.098419	-0.530420	0.544016	2.510046	0.000000	0.048510	0.000000	0.000016	0.000002	0.000000	0.000000
15.186863	13.298290	20.394194	-0.916728	1.046934	2.547161	0.000000	0.119987	0.000000	0.000017	0.000002	0.000000	0.000000
15.627823	14.291817	19.265826	-1.344920	1.502218	2.616064	0.000000	0.192829	0.000000	0.000018	0.000002	0.000000	0.000000
16.068783	15.688542	17.764655	-1.834557	1.889152	2.717541	0.000000	0.267868	0.000000	0.000019	0.000003	0.000000	0.000000
16.514743	17.575934	15.937481	-2.412768	2.190874	2.854442	0.000000	0.346420	0.000000	0.000020	0.000003	0.000000	0.000000
17.063803	20.000096	13.897321	-1.976208	1.546791	3.020915	0.000000	0.259086	0.000000	0.000022	0.000003	0.000000	0.000000
17.612863	21.864910	12.500152	-1.400059	1.012884	3.138103	0.000000	0.167157	0.000000	0.000023	0.000002	0.000000	0.000000
18.161923	23.038653	11.646459	-0.725016	0.551121	3.203927	0.000000	0.072263	0.000000	0.000024	0.000001	0.000000	0.000000
18.710983	23.438417	11.275433	0.001238	0.128614	3.217220	0.000000	-0.023913	0.000000	0.000025	0.000000	0.000000	0.000000
19.009556	23.478057	11.189146	-0.072774	0.130927	3.212589	0.000000	-0.015509	0.000000	0.000025	0.000001	0.000000	0.000000
19.342889	23.531331	11.111962	-0.087047	0.100626	3.207419	0.000000	-0.015509	0.000000	0.000025	0.000001	0.000000	0.000000
19.676223	23.594120	11.054979	-0.101320	0.070324	3.202249	0.000000	-0.015509	0.000000	0.000025	0.000001	0.000000	0.000000
20.010806	23.667006	11.017960	-0.232906	0.094499	3.197080	0.000000	0.000331	0.000000	0.000025	0.000001	0.000000	0.000000
20.308129	23.809440	10.969861	-0.308346	0.095929	3.197178	0.000000	0.008683	0.000000	0.000025	0.000001	0.000000	0.000000
20.857189	23.737381	11.086511	0.438810	-0.309636	3.175725	0.000000	-0.086711	0.000000	0.000026	-0.000000	0.000000	0.000000
21.406249	22.857088	11.657944	1.154972	-0.737256	3.102241	0.000000	-0.180568	0.000000	0.000025	-0.000001	0.000000	0.000000
21.955309	21.230740	12.724864	1.789551	-1.217388	2.978029	0.000000	-0.271222	0.000000	0.000025	-0.000002	0.000000	0.000000
22.504369	18.973214	14.363263	2.297726	-1.784233	2.805292	0.000000	-0.357065	0.000000	0.000023	-0.000003	0.000000	0.000000
22.950329	17.194009	15.834317	1.705962	-1.500473	2.663351	0.000000	-0.279853	0.000000	0.000022	-0.000002	0.000000	0.000000
23.391289	15.918828	17.007224	1.196835	-1.149296	2.556270	0.000000	-0.206283	0.000000	0.000022	-0.000001	0.000000	0.000000
23.832249	15.066940	17.846090	0.742388	-0.745827	2.481082	0.000000	-0.135063	0.000000	0.000021	-0.000001	0.000000	0.000000
24.273209	14.599422	18.312748	0.321859	-0.308423	2.436930	0.000000	-0.065381	0.000000	0.000021	-0.000000	0.000000	0.000000
24.715418	14.495038	18.385721	-0.048513	0.097866	2.423309	0.000000	-0.002385	0.000000	0.000021	0.000000	0.000000	0.000000
25.012741	14.529999	18.332380	-0.069073	0.081539	2.422600	0.000000	-0.002385	0.000000	0.000021	0.000000	0.000000	0.000000
25.346075	14.583731	18.284122	-0.092123	0.063236	2.421805	0.000000	-0.002385	0.000000	0.000021	0.000000	0.000000	0.000000
25.679408	14.652830	18.248066	-0.115174	0.044932	2.421010	0.000000	-0.002385	0.000000	0.000021	0.000000	0.000000	0.000000
26.013991	14.737343	18.224515	-0.018752	-0.121286	2.420187	0.000000	-0.022019	0.000000	0.000021	0.000000	0.000000	0.000000
26.311314	14.754494	18.301560	-0.002759	-0.182713	2.413640	0.000000	-0.027937	0.000000	0.000021	-0.000000	0.000000	0.000000
26.752274	14.938697	18.264234	-0.416558	0.267037	2.416432	0.000000	0.040611	0.000000	0.000021	0.000001	0.000000	0.000000
27.193234	15.494819	17.834127	-0.849388	0.704637	2.449524	0.000000	0.109622	0.000000	0.000022	0.000001	0.000000	0.000000
27.634194	16.448268	17.030810	-1.321025	1.110176	2.513293	0.000000	0.179882	0.000000	0.000022	0.000002	0.000000	0.000000
28.075154	17.842605	15.890833	-1.853016	1.465203	2.608464	0.000000	0.252190	0.000000	0.000023	0.000002	0.000000	0.000000
28.521114	19.765753	14.448888	-2.474637	1.754476	2.737727	0.000000	0.327814	0.000000	0.000024	0.000003	0.000000	0.000000
29.070174	22.210083	12.842343	-1.950851	1.188786	2.895050	0.000000	0.244410	0.000000	0.000026	0.000002	0.000000	0.000000
29.619234	23.999697	11.807130	-1.289266	0.707771	3.005320	0.000000	0.156671	0.000000	0.000027	0.000001	0.000000	0.000000
30.168294	25.008185	11.269512	-0.536615	0.277168	3.066582	0.000000	0.066153	0.000000	0.000027	0.000000	0.000000	0.000000
30.717354	25.164314	11.191197	0.253941	-0.133692	3.077748	0.000000	-0.025539	0.000000	0.000027	-0.000001	0.000000	0.000000
31.015927	25.055596	11.261626	0.175921	-0.131428	3.072524	0.000000	-0.017499	0.000000	0.000027	-0.000000	0.000000	0.000000
31.349260	24.942887	11.359282	0.162206	-0.161539	3.066691	0.000000	-0.017499	0.000000	0.000027	-0.000000	0.000000	0.000000
31.682593	24.839321	11.477011	0.148490	-0.191649	3.060858	0.000000	-0.017499	0.000000	0.000027	-0.000000	0.000000	0.000000
32.017177	24.744563	11.615369	0.134723	-0.221872	3.055003	0.000000	-0.017499	0.000000	0.000026	-0.000000	0.000000	0.000000
32.314499	24.668088	11.755289	0.058051	-0.218022	3.049801	0.000000	-0.009532	0.000000	0.000026	-0.000000	0.000000	0.000000
32.863559	24.181675	12.233886	0.822605	-0.658788	3.019684	0.000000	-0.100011	0.000000	0.000026	-0.000001	0.000000	0.000000
33.412619	22.882783	13.219269	1.529055	-1.146478	2.940304	0.000000	-0.188716	0.000000	0.000025	-0.000002	0.000000	0.000000
33.961679	20.863158	14.781625	2.127499	-1.715829	2.813068	0.000000	-0.274074	0.000000	0.000024	-0.000003	0.000000	0.000000
34.510739	18.265458	17.032238	2.575668	-2.407394	2.640234	0.000000	-0.354570	0.000000	0.000022	-0.000004	0.000000	0.000000
34.956699	16.245601	19.045353	1.969793	-2.087873	2.498453	0.000000	-0.281638	0.000000	0.000020	-0.000003	0.000000	0.000000
35.397659	14.739384	20.710569	1.458930	-1.674098	2.389645	0.000000	-0.212341	0.000000	0.000019	-0.000003	0.000000	0.000000
35.838619	13.652725	21.975759	1.014721	-1.184154	2.310832	0.000000	-0.145464	0.000000	0.000018	-0.000002	0.000000	0.000000
36.279579	12.935976	22.783357	0.616873	-0.640331	2.261117	0.000000	-0.080242	0.000000	0.000017	-0.000002	0.000000	0.000000
36.721789	12.555696	23.096929	0.277887	-0.124059	2.239906	0.000000	-0.021427	0.000000	0.000017	-0.000001	0.000000	0.000000
37.019112	12.398036	23.174587	0.252378	-0.137130	2.233535	0.000000	-0.021427	0.000000	0.000016	-0.000001	0.000000	0.000000
37.352445	12.239317	23.270892	0.223779	-0.151784	2.226393	0.000000	-0.021427	0.000000	0.000016	-0.000001	0.000000	0.000000
37.685779	12.099664	23.376966	0.195181	-0.166439	2.219252	0.000000	-0.021427	0.000000	0.000016	-0.000001	0.000000	0.000000
38.020362	11.978660	23.493263	0.166475	-0.181148	2.212083	0.000000	-0.021427	0.000000	0.000015	-0.000001	0.000000	0.000000
38.317684	11.887250	23.604868	0.170113	-0.252097	2.205712	0.000000	-0.026835	0.000000	0.000015	-0.000001	0.000000	0.000000
38.758644	11.888752	23.565735	-0.173532	0.340505	2.207807	0.000000	0.036344	0.000000	0.000014	-0.000001	0.000000	0.000000
39.199604	12.195659	23.008836	-0.525106	0.917613	2.237826	0.000000	0.099937	0.000000	0.000014	-0.000000	0.000000	0.000000
39.640564	12.821994	21.959509	-0.900671	1.452971	2.296111	0.000000	0.164668	0.000000	0.000014	-0.000000	0.000000	0.000000
40.081524	13.796371	20.465499	-1.317384	1.922220	2.383326	0.000000	0.231275	0.000000	0.000014	0.000000	0.000000	0.000000
40.527484	15.180886	18.572206	-1.798113	2.305296	2.501935	0.000000	0.300921	0.000000	0.000014	0.000001	0.000000	0.000000
41.076544	16.947604	16.444571	-1.400552	1.592628	2.646628	0.000000	0.225362	0.000000	0.000014	0.000000	0.000000	0.000000
41.625604	18.220512	15.033018	-0.904063	0.993399	2.748675	0.000000	0.145805	0.000000	0.000014	-0.000000	0.000000	0.000000
42.174664	18.909697	14.237007	-0.343716	0.464928	2.806265	0.000000	0.063662	0.000000	0.000014	-0.000001	0.000000	0.000000
42.723724	18.966479	13.999840	0.240910	-0.030426	2.818377	0.000000	-0.019610	0.000000	0.000013	-0.000001	0.000000	0.000000
43.022297	18.857081	14.002536	0.175041	-0.015179	2.814721	0.000000	-0.012247	0.000000	0.000013	-0.000001	0.000000	0.000000
43.502297	18.701634	14.033566	0.148807	-0.049466	2.808843	0.000000	-0.012247	0.000000	0.000013	-0.000001	0.000000	0.000000
43.982297	18.571372	14.097512	0.122572	-0.083754	2.802964	0.000000	-0.012247	0.000000	0.000012	-0.000001	0.000000	0.000000
44.462297	18.466295	14.194373	0.096338	-0.118041	2.797086	0.000000	-0.012247	0.000000	0.000011	-0.000001	0.000000	0.000000
44.942297	18.386404	14.324151	0.070103	-0.152329	2.791208	0.000000	-0.012247	0.000000	0.000011	-0.000001	0.000000	0.000000
45.423547	18.331815	14.487131	-0.047026	-0.114927	2.785332	0.000000	0.001553	0.000000	0.000010	-0.000001	0.000000	0.000000
45.720870	18.364611	14.561655	-0.111260	-0.097678	2.785794	0.000000	0.008831	0.000000	0.000010	-0.000001	0.000000	0.000000
46.269930	18.177569	14.950509	0.449902	-0.614720	2.768072	0.000000	-0.073294	0.000000	0.000009	-0.000001	0.000000	0.000000
46.818990	17.388187	15.927704	0.979284	-1.175546	2.705548	0.000000	-0.154120	0.000000	0.000008	-0.000002	0.000000	0.000000
47.368050	16.052223	17.562845	1.439495	-1.820105	2.599333	0.000000	-0.232212	0.000000	0.000007	-0.000002	0.000000	0.000000
47.917110	14.264043	19.972397	1.798027	-2.594305	2.451310	0.000000	-0.306185	0.000000	0.000006	-0.000002	0.000000	0.000000
48.363070	12.872553	22.114640	1.333240	-2.189166	2.330057	0.000000	-0.237886	0.000000	0.000005	-0.000002	0.000000	0.000000
48.804030	11.876948	23.829827	0.933136	-1.685697	2.239619	0.000000	-0.172694	0.000000	0.000004	-0.000002	0.000000	0.000000
49.244990	11.214143	25.065348	0.575663	-1.105530	2.177468	0.000000	-0.109469	0.000000	0.000004	-0.000002	0.000000	0.000000
49.685950	10.853854	25.764988	0.244491	-0.475063	2.142895	0.000000	-0.047491	0.000000	0.000003	-0.000002	0.000000	0.000000
50.128160	10.779744	25.896632	-0.049193	0.113466	2.135517	0.000000	0.008710	0.000000	0.000002	-0.000002	0.000000	0.000000
50.425482	10.817217	25.832617	-0.076841	0.101837	2.138107	0.000000	0.008710	0.000000	0.000002	-0.000002	0.000000	0.000000
50.758816	10.878776	25.769072	-0.107838	0.088800	2.141011	0.000000	0.008710	0.000000	0.000001	-0.000002	0.000000	0.000000
51.092149	10.961001	25.714218	-0.138835	0.075762	2.143915	0.000000	0.008710	0.000000	0.000000	-0.000002	0.000000	0.000000
51.426732	11.064090	25.668419	-0.080189	-0.145559	2.146808	0.000000	-0.008707	0.000000	-0.000000	-0.000002	0.000000	0.000000
51.724055	11.119815	25.758492	-0.079965	-0.220556	2.144220	0.000000	-0.013965	0.000000	-0.000001	-0.000002	0.000000	0.000000
52.165015	11.335547	25.666415	-0.411123	0.428572	2.151651	0.000000	0.047698	0.000000	-0.000001	-0.000002	0.000000	0.000000
52.605975	11.850481	25.008303	-0.761065	1.058201	2.186366	0.000000	0.109904	0.000000	-0.000002	-0.000002	0.000000	0.000000
53.046935	12.688144	23.814101	-1.145777	1.639682	2.248762	0.000000	0.173361	0.000000	-0.000003	-0.000002	0.000000	0.000000
53.487895	13.886805	22.138143	-1.582836	2.146558	2.339548	0.000000	0.238793	0.000000	-0.000004	-0.000002	0.000000	0.000000
53.933855	15.521779	20.031627	-2.096436	2.557107	2.461264	0.000000	0.307344	0.000000	-0.000005	-0.000002	0.000000	0.000000
54.482915	17.626798	17.661213	-1.714730	1.785600	2.609835	0.000000	0.233040	0.000000	-0.000006	-0.000002	0.000000	0.000000
55.031975	19.243264	16.063612	-1.211904	1.141277	2.716412	0.000000	0.154602	0.000000	-0.000007	-0.000002	0.000000	0.000000
55.581035	20.256998	15.125031	-0.623476	0.578245	2.779104	0.000000	0.073421	0.000000	-0.000007	-0.000001	0.000000	0.000000
56.130095	20.596395	14.778618	0.008992	0.056400	2.796799	0.000000	-0.009061	0.000000	-0.000008	-0.000001	0.000000	0.000000
56.428668	20.627500	14.727965	-0.059352	0.074632	2.796276	0.000000	-0.001753	0.000000	-0.000008	-0.000001	0.000000	0.000000
56.762001	20.672474	14.685797	-0.075569	0.051873	2.795692	0.000000	-0.001753	0.000000	-0.000009	-0.000001	0.000000	0.000000
57.095334	20.728259	14.658801	-0.091785	0.029114	2.795108	0.000000	-0.001753	0.000000	-0.000009	-0.000001	0.000000	0.000000
57.429918	20.795124	14.646963	-0.108063	0.006270	2.794522	0.000000	-0.001753	0.000000	-0.000010	-0.000001	0.000000	0.000000
57.727240	20.863684	14.649270	-0.177045	0.024249	2.794001	0.000000	0.005548	0.000000	-0.000010	-0.000001	0.000000	0.000000
58.276300	20.702192	14.903898	0.469428	-0.490739	2.774408	0.000000	-0.076813	0.000000	-0.000011	-0.000001	0.000000	0.000000
58.825360	19.844882	15.739805	1.082743	-1.040681	2.709902	0.000000	-0.157812	0.000000	-0.000011	-0.000001	0.000000	0.000000
59.374420	18.352311	17.216530	1.619578	-1.664748	2.601626	0.000000	-0.236012	0.000000	-0.000011	-0.000000	0.000000	0.000000
59.923480	16.329906	19.439258	2.042014	-2.407391	2.451502	0.000000	-0.310025	0.000000	-0.000011	0.000000	0.000000	0.000000
60.369440	14.747025	21.414803	1.519933	-2.003779	2.328533	0.000000	-0.241744	0.000000	-0.000011	-0.000000	0.000000	0.000000
60.810400	13.608628	22.970323	1.071494	-1.510373	2.236382	0.000000	-0.176613	0.000000	-0.000011	-0.000000	0.000000	0.000000
61.251360	12.842719	24.058617	0.672008	-0.948247	2.172480	0.000000	-0.113494	0.000000	-0.000011	-0.000001	0.000000	0.000000
61.692320	12.414307	24.630169	0.303224	-0.342976	2.136100	0.000000	-0.051668	0.000000	-0.000012	-0.000001	0.000000	0.000000
62.134530	12.303871	24.658431	-0.021633	0.217370	2.126833	0.000000	0.004354	0.000000	-0.000012	-0.000001	0.000000	0.000000
62.431853	12.323923	24.532927	-0.045809	0.204742	2.128128	0.000000	0.004354	0.000000	-0.000013	-0.000001	0.000000	0.000000
62.765186	12.363497	24.401151	-0.072913	0.190586	2.129580	0.000000	0.004354	0.000000	-0.000013	-0.000001	0.000000	0.000000
63.098520	12.421140	24.278813	-0.100018	0.176429	2.131031	0.000000	0.004354	0.000000	-0.000013	-0.000001	0.000000	0.000000
63.433103	12.497172	24.165507	-0.127224	0.162219	2.132488	0.000000	0.004354	0.000000	-0.000014	-0.000001	0.000000	0.000000
63.730426	12.580013	24.072798	-0.120546	0.090550	2.133783	0.000000	-0.000879	0.000000	-0.000014	-0.000001	0.000000	0.000000
64.171386	12.846559	23.727837	-0.486216	0.688770	2.146936	0.000000	0.060588	0.000000	-0.000015	-0.000002	0.000000	0.000000
64.612346	13.444137	22.867149	-0.874101	1.255652	2.187319	0.000000	0.122745	0.000000	-0.000016	-0.000002	0.000000	0.000000
65.053306	14.400048	21.529897	-1.301920	1.765402	2.255394	0.000000	0.186301	0.000000	-0.000017	-0.000002	0.000000	0.000000
65.494266	15.757965	19.776923	-1.789220	2.194829	2.351935	0.000000	0.251978	0.000000	-0.000018	-0.000003	0.000000	0.000000
65.940226	17.603088	17.663187	-2.362956	2.525143	2.479614	0.000000	0.320927	0.000000	-0.000019	-0.000003	0.000000	0.000000
66.489286	19.968485	15.298628	-1.919631	1.806838	2.635459	0.000000	0.245910	0.000000	-0.000021	-0.000003	0.000000	0.000000
67.038346	21.769268	13.647977	-1.340713	1.217230	2.748854	0.000000	0.166531	0.000000	-0.000022	-0.000002	0.000000	0.000000
67.587406	22.878238	12.593664	-0.667094	0.714322	2.817790	0.000000	0.084199	0.000000	-0.000023	-0.000001	0.000000	0.000000
68.136466	23.217064	12.060590	0.053645	0.262293	2.841042	0.000000	0.000373	0.000000	-0.000023	-0.000000	0.000000	0.000000
68.435038	23.225100	11.893171	-0.019889	0.266919	2.843370	0.000000	0.007798	0.000000	-0.000024	-0.000001	0.000000	0.000000
68.768372	23.243146	11.725234	-0.034247	0.236895	2.845970	0.000000	0.007798	0.000000	-0.000024	-0.000001	0.000000	0.000000
69.101705	23.270763	11.577312	-0.048605	0.206870	2.848569	0.000000	0.007798	0.000000	-0.000024	-0.000001	0.000000	0.000000
69.436288	23.308110	11.448964	-0.063017	0.176734	2.851178	0.000000	0.007798	0.000000	-0.000024	-0.000001	0.000000	0.000000
69.733611	23.349391	11.351833	-0.136844	0.179619	2.853497	0.000000	0.015255	0.000000	-0.000024	-0.000001	0.000000	0.000000
70.282671	23.098642	11.381972	0.590829	-0.234835	2.838690	0.000000	-0.069112	0.000000	-0.000024	0.000000	0.000000	0.000000
