#ParticleID	Turn	x[m]	xp	y[m]	yp	z[m]	dE[GeV]# s	beta_x	beta_y	alpha_x	alpha_y	D_x	D_y	D_px	D_py	orbit_x	orbit_px	orbit_y	orbit_py
0.300000	11.830185	24.953953	-0.013121	-0.027747	2.618246	0.000000	-0.000039	0.000000	-0.000000	0.000000	0.000000	0.000000
0.601250	11.845763	24.974310	-0.038590	-0.039828	2.618234	0.000000	-0.000039	0.000000	0.000000	0.000000	0.000000	0.000000
0.898573	11.876184	25.001539	-0.034603	-0.113063	2.618223	0.000000	-0.006460	0.000000	0.000000	0.000000	0.000000	0.000000
1.339533	12.059035	24.823953	-0.381635	0.514256	2.631668	0.000000	0.067500	0.000000	0.000000	0.000000	0.000000	0.000000
1.780493	12.554444	24.101366	-0.746103	1.118177	2.677865	0.000000	0.142228	0.000000	0.000000	0.000000	0.000000	0.000000
2.221453	13.385043	22.866654	-1.144659	1.671222	2.757339	0.000000	0.218577	0.000000	0.000001	0.000000	0.000000	0.000000
2.662413	14.588782	21.175997	-1.595510	2.148227	2.870997	0.000000	0.297415	0.000000	0.000001	0.000000	0.000000	0.000000
3.108373	16.241457	19.081519	-2.123556	2.528620	3.021993	0.000000	0.380130	0.000000	0.000001	0.000000	0.000000	0.000000
3.657433	18.360694	16.729218	-1.713350	1.780902	3.205435	0.000000	0.287092	0.000000	0.000001	0.000000	0.000000	0.000000
4.206493	19.959948	15.123944	-1.182121	1.160033	3.336319	0.000000	0.188962	0.000000	0.000001	0.000000	0.000000	0.000000
4.755553	20.926257	14.151357	-0.567394	0.621790	3.412322	0.000000	0.087481	0.000000	0.000001	0.000000	0.000000	0.000000
5.304613	21.191365	13.742182	0.087412	0.127837	3.432097	0.000000	-0.015553	0.000000	0.000001	0.000000	0.000000	0.000000
5.603185	21.176442	13.651065	0.017940	0.141433	3.430131	0.000000	-0.006585	0.000000	0.000001	0.000000	0.000000	0.000000
5.936519	21.169730	13.565079	0.002194	0.116526	3.427936	0.000000	-0.006585	0.000000	0.000002	0.000000	0.000000	0.000000
6.269852	21.173517	13.495696	-0.013552	0.091620	3.425741	0.000000	-0.006585	0.000000	0.000002	0.000000	0.000000	0.000000
6.604435	21.187873	13.442752	-0.029357	0.066620	3.423537	0.000000	-0.006585	0.000000	0.000002	0.000000	0.000000	0.000000
6.901758	21.209506	13.409742	-0.098817	0.079441	3.421579	0.000000	0.002354	0.000000	0.000002	0.000000	0.000000	0.000000
7.450818	20.956472	13.583017	0.556939	-0.396889	3.394672	0.000000	-0.100222	0.000000	0.000002	0.000000	0.000000	0.000000
7.999878	20.000780	14.291721	1.173355	-0.901488	3.311849	0.000000	-0.201022	0.000000	0.000002	0.000000	0.000000	0.000000
8.548938	18.409934	15.586331	1.706892	-1.470298	3.174581	0.000000	-0.298255	0.000000	0.000002	0.000000	0.000000	0.000000
9.097998	16.296305	17.559062	2.119862	-2.143834	2.985301	0.000000	-0.390199	0.000000	0.000002	-0.000000	0.000000	0.000000
9.543958	14.647164	19.316929	1.591241	-1.781267	2.829594	0.000000	-0.308497	0.000000	0.000002	0.000000	0.000000	0.000000
9.984918	13.447516	20.698046	1.139617	-1.338883	2.710804	0.000000	-0.230792	0.000000	0.000002	0.000000	0.000000	0.000000
10.425878	12.621786	21.660561	0.740059	-0.835581	2.625668	0.000000	-0.155717	0.000000	0.000002	0.000000	0.000000	0.000000
10.866838	12.132250	22.160679	0.374312	-0.294261	2.573214	0.000000	-0.082414	0.000000	0.000002	0.000000	0.000000	0.000000
11.309048	11.956405	22.175131	0.054882	0.206009	2.552827	0.000000	-0.016311	0.000000	0.000002	0.000000	0.000000	0.000000
11.606371	11.931185	22.056785	0.029940	0.192032	2.547977	0.000000	-0.016311	0.000000	0.000002	0.000000	0.000000	0.000000
12.086371	11.921771	21.883265	-0.010327	0.169467	2.540148	0.000000	-0.016311	0.000000	0.000002	0.000000	0.000000	0.000000
12.566371	11.951013	21.731408	-0.050594	0.146903	2.532319	0.000000	-0.016311	0.000000	0.000002	0.000000	0.000000	0.000000
13.046371	12.018910	21.601212	-0.090860	0.124338	2.524489	0.000000	-0.016311	0.000000	0.000003	0.000000	0.000000	0.000000
13.526371	12.125464	21.492679	-0.131127	0.101774	2.516660	0.000000	-0.016311	0.000000	0.000003	0.000000	0.000000	0.000000
14.007621	12.271103	21.405609	-0.171499	0.079150	2.508811	0.000000	-0.016311	0.000000	0.000003	0.000000	0.000000	0.000000
14.304943	12.380500	21.362698	-0.166081	0.012787	2.503961	0.000000	-0.022451	0.000000	0.000003	0.000000	0.000000	0.000000
14.745903	12.685691	21.117579	-0.528650	0.540974	2.509691	0.000000	0.048464	0.000000	0.000003	0.000000	0.000000	0.000000
15.186863	13.320041	20.415757	-0.915372	1.044546	2.546783	0.000000	0.119930	0.000000	0.000003	0.000000	0.000000	0.000000
15.627823	14.312530	19.289166	-1.343915	1.500593	2.615660	0.000000	0.192763	0.000000	0.000003	0.000000	0.000000	0.000000
16.068783	15.708505	17.789063	-1.833857	1.888364	2.717106	0.000000	0.267791	0.000000	0.000003	0.000001	0.000000	0.000000
16.514743	17.595396	15.962201	-2.412340	2.190965	2.853971	0.000000	0.346331	0.000000	0.000004	0.000001	0.000000	0.000000
17.063803	20.018586	13.922217	-1.974877	1.546379	3.020401	0.000000	0.259013	0.000000	0.000004	0.000000	0.000000	0.000000
17.612863	21.881482	12.525790	-1.397919	1.011938	3.137555	0.000000	0.167101	0.000000	0.000004	0.000000	0.000000	0.000000
18.161923	23.052497	11.673457	-0.722219	0.549575	3.203354	0.000000	0.072225	0.000000	0.000004	0.000000	0.000000	0.000000
18.710983	23.448916	11.304508	0.004496	0.126357	3.216631	0.000000	-0.023932	0.000000	0.000004	0.000000	0.000000	0.000000
19.009556	23.486630	11.219495	-0.069544	0.128838	3.211995	0.000000	-0.015528	0.000000	0.000004	0.000000	0.000000	0.000000
19.342889	23.537746	11.143671	-0.083805	0.098635	3.206819	0.000000	-0.015528	0.000000	0.000005	0.000000	0.000000	0.000000
19.676223	23.598370	11.087982	-0.098066	0.068432	3.201643	0.000000	-0.015528	0.000000	0.000005	0.000000	0.000000	0.000000
20.010806	23.669075	11.052196	-0.229650	0.092875	3.196468	0.000000	0.000309	0.000000	0.000005	0.000000	0.000000	0.000000
20.308129	23.809567	11.005036	-0.305082	0.094494	3.196560	0.000000	0.008661	0.000000	0.000005	0.000000	0.000000	0.000000
20.857189	23.733938	11.123810	0.442009	-0.312092	3.175100	0.000000	-0.086713	0.000000	0.000005	-0.000000	0.000000	0.000000
21.406249	22.850273	11.698578	1.157878	-0.740908	3.101621	0.000000	-0.180549	0.000000	0.000005	-0.000000	0.000000	0.000000
21.955309	21.220989	12.770280	1.791961	-1.222498	2.977424	0.000000	-0.271183	0.000000	0.000004	-0.000000	0.000000	0.000000
22.504369	18.961171	14.415251	2.299469	-1.791163	2.804713	0.000000	-0.357007	0.000000	0.000004	-0.000000	0.000000	0.000000
22.950329	17.180387	15.891970	1.707776	-1.506195	2.662793	0.000000	-0.279810	0.000000	0.000004	-0.000000	0.000000	0.000000
23.391289	15.903545	17.069293	1.198805	-1.153554	2.555727	0.000000	-0.206255	0.000000	0.000004	-0.000000	0.000000	0.000000
23.832249	15.049818	17.911195	0.744604	-0.748427	2.480548	0.000000	-0.135048	0.000000	0.000004	-0.000000	0.000000	0.000000
24.273209	14.580202	18.379369	0.324422	-0.309248	2.436400	0.000000	-0.065380	0.000000	0.000004	-0.000000	0.000000	0.000000
24.715418	14.473355	18.452267	-0.045534	0.098685	2.422776	0.000000	-0.002398	0.000000	0.000004	0.000000	0.000000	0.000000
25.012741	14.506552	18.398422	-0.066119	0.082415	2.422063	0.000000	-0.002398	0.000000	0.000004	0.000000	0.000000	0.000000
25.346075	14.558324	18.349559	-0.089198	0.064174	2.421264	0.000000	-0.002398	0.000000	0.000004	0.000000	0.000000	0.000000
25.679408	14.625483	18.312856	-0.112277	0.045934	2.420465	0.000000	-0.002398	0.000000	0.000004	0.000000	0.000000	0.000000
26.013991	14.708067	18.288616	-0.016120	-0.120742	2.419638	0.000000	-0.022027	0.000000	0.000004	0.000000	0.000000	0.000000
26.311314	14.723665	18.365318	-0.000235	-0.182271	2.413089	0.000000	-0.027945	0.000000	0.000004	-0.000000	0.000000	0.000000
26.752274	14.905300	18.326841	-0.413238	0.269196	2.415874	0.000000	0.040590	0.000000	0.000004	0.000000	0.000000	0.000000
27.193234	15.458089	17.894107	-0.845120	0.708416	2.448954	0.000000	0.109586	0.000000	0.000004	0.000000	0.000000	0.000000
27.634194	16.407285	17.086804	-1.315613	1.115403	2.512703	0.000000	0.179830	0.000000	0.000004	0.000000	0.000000	0.000000
28.075154	17.796255	15.941664	-1.846213	1.471640	2.607850	0.000000	0.252123	0.000000	0.000004	0.000000	0.000000	0.000000
28.521114	19.712594	14.493544	-2.466118	1.761832	2.737079	0.000000	0.327731	0.000000	0.000004	0.000001	0.000000	0.000000
29.070174	22.148268	12.879898	-1.943701	1.194439	2.894364	0.000000	0.244348	0.000000	0.000005	0.000000	0.000000	0.000000
29.619234	23.931018	11.839224	-1.283992	0.712123	3.004607	0.000000	0.156632	0.000000	0.000005	0.000000	0.000000	0.000000
30.168294	24.934921	11.297395	-0.533588	0.280530	3.065854	0.000000	0.066137	0.000000	0.000005	0.000000	0.000000	0.000000
30.717354	25.089066	11.215820	0.254507	-0.131081	3.077018	0.000000	-0.025531	0.000000	0.000005	-0.000000	0.000000	0.000000
31.015927	24.979912	11.284627	0.176631	-0.128674	3.071795	0.000000	-0.017491	0.000000	0.000005	-0.000000	0.000000	0.000000
31.349260	24.866744	11.380418	0.162871	-0.158702	3.065965	0.000000	-0.017491	0.000000	0.000005	-0.000000	0.000000	0.000000
31.682593	24.762751	11.496229	0.149110	-0.188729	3.060135	0.000000	-0.017491	0.000000	0.000005	-0.000000	0.000000	0.000000
32.017177	24.667592	11.632604	0.135298	-0.218870	3.054282	0.000000	-0.017491	0.000000	0.000005	-0.000000	0.000000	0.000000
32.314499	24.590787	11.770718	0.058776	-0.214900	3.049082	0.000000	-0.009525	0.000000	0.000005	-0.000000	0.000000	0.000000
32.863559	24.104993	12.246049	0.820761	-0.655929	3.018975	0.000000	-0.099981	0.000000	0.000005	-0.000000	0.000000	0.000000
33.412619	22.809485	13.228344	1.524773	-1.143679	2.939617	0.000000	-0.188663	0.000000	0.000004	-0.000000	0.000000	0.000000
33.961679	20.795771	14.787568	2.121081	-1.712890	2.812416	0.000000	-0.273999	0.000000	0.000004	-0.000001	0.000000	0.000000
34.510739	18.206092	17.034781	2.567568	-2.404106	2.639627	0.000000	-0.354475	0.000000	0.000004	-0.000001	0.000000	0.000000
34.956699	16.192642	19.044760	1.963474	-2.084158	2.497884	0.000000	-0.281558	0.000000	0.000004	-0.000001	0.000000	0.000000
35.397659	14.691328	20.706576	1.454090	-1.670131	2.389107	0.000000	-0.212276	0.000000	0.000003	-0.000000	0.000000	0.000000
35.838619	13.608370	21.968221	1.011138	-1.180115	2.310319	0.000000	-0.145412	0.000000	0.000003	-0.000000	0.000000	0.000000
36.279579	12.894289	22.772294	0.614382	-0.636404	2.260623	0.000000	-0.080203	0.000000	0.000003	-0.000000	0.000000	0.000000
36.721789	12.515772	23.082508	0.276282	-0.120395	2.239426	0.000000	-0.021400	0.000000	0.000003	-0.000000	0.000000	0.000000
37.019112	12.359084	23.157986	0.250713	-0.133463	2.233063	0.000000	-0.021400	0.000000	0.000003	-0.000000	0.000000	0.000000
37.352445	12.201497	23.251845	0.222047	-0.148113	2.225930	0.000000	-0.021400	0.000000	0.000003	-0.000000	0.000000	0.000000
37.685779	12.063022	23.355471	0.193381	-0.162763	2.218797	0.000000	-0.021400	0.000000	0.000003	-0.000000	0.000000	0.000000
38.020362	11.943245	23.469307	0.164607	-0.177469	2.211637	0.000000	-0.021400	0.000000	0.000003	-0.000000	0.000000	0.000000
38.317684	11.852964	23.578723	0.168104	-0.248357	2.205274	0.000000	-0.026808	0.000000	0.000003	-0.000000	0.000000	0.000000
38.758644	11.855897	23.536608	-0.174781	0.343500	2.207378	0.000000	0.036360	0.000000	0.000003	-0.000000	0.000000	0.000000
39.199604	12.163593	22.977447	-0.525652	0.919729	2.237402	0.000000	0.099942	0.000000	0.000002	-0.000000	0.000000	0.000000
39.640564	12.790110	21.926680	-0.900539	1.454110	2.295686	0.000000	0.164662	0.000000	0.000002	-0.000000	0.000000	0.000000
40.081524	13.764071	20.432118	-1.316569	1.922330	2.382896	0.000000	0.231258	0.000000	0.000002	0.000000	0.000000	0.000000
40.527484	15.147537	18.539193	-1.796572	2.304365	2.501495	0.000000	0.300893	0.000000	0.000002	0.000000	0.000000	0.000000
41.076544	16.913245	16.412118	-1.400267	1.592533	2.646177	0.000000	0.225348	0.000000	0.000002	0.000000	0.000000	0.000000
41.625604	18.186542	15.000216	-0.905053	0.994134	2.748220	0.000000	0.145806	0.000000	0.000002	-0.000000	0.000000	0.000000
42.174664	18.877487	14.202922	-0.345911	0.466545	2.805814	0.000000	0.063678	0.000000	0.000002	-0.000000	0.000000	0.000000
42.723724	18.937275	13.963446	0.237664	-0.027813	2.817938	0.000000	-0.019580	0.000000	0.000002	-0.000000	0.000000	0.000000
43.022297	18.829775	13.964653	0.171860	-0.012714	2.814291	0.000000	-0.012218	0.000000	0.000002	-0.000000	0.000000	0.000000
43.502297	18.677386	13.993360	0.145616	-0.047092	2.808426	0.000000	-0.012218	0.000000	0.000002	-0.000000	0.000000	0.000000
43.982297	18.550192	14.055070	0.119372	-0.081470	2.802562	0.000000	-0.012218	0.000000	0.000002	-0.000000	0.000000	0.000000
44.462297	18.448193	14.149783	0.093127	-0.115848	2.796698	0.000000	-0.012218	0.000000	0.000002	-0.000000	0.000000	0.000000
44.942297	18.371388	14.277498	0.066883	-0.150226	2.790833	0.000000	-0.012218	0.000000	0.000002	-0.000000	0.000000	0.000000
45.423547	18.319904	14.438500	-0.050197	-0.113157	2.784971	0.000000	0.001581	0.000000	0.000002	-0.000000	0.000000	0.000000
45.720870	18.354591	14.511989	-0.114424	-0.096096	2.785441	0.000000	0.008859	0.000000	0.000002	-0.000000	0.000000	0.000000
46.269930	18.171180	14.898266	0.446491	-0.611581	2.767736	0.000000	-0.073256	0.000000	0.000002	-0.000000	0.000000	0.000000
46.818990	17.385569	15.871063	0.975869	-1.170628	2.705236	0.000000	-0.154071	0.000000	0.000001	-0.000000	0.000000	0.000000
47.368050	16.053248	17.499671	1.436315	-1.813055	2.599050	0.000000	-0.232153	0.000000	0.000001	-0.000000	0.000000	0.000000
47.917110	14.268326	19.900091	1.795308	-2.584623	2.451061	0.000000	-0.306118	0.000000	0.000001	-0.000000	0.000000	0.000000
48.363070	12.879176	22.034379	1.330694	-2.181085	2.329835	0.000000	-0.237825	0.000000	0.000001	-0.000000	0.000000	0.000000
48.804030	11.885785	23.743280	0.930642	-1.679579	2.239423	0.000000	-0.172639	0.000000	0.000001	-0.000000	0.000000	0.000000
49.244990	11.225197	24.974377	0.573109	-1.101653	2.177294	0.000000	-0.109418	0.000000	0.000001	-0.000000	0.000000	0.000000
49.685950	10.867231	25.671655	0.241759	-0.473603	2.142742	0.000000	-0.047444	0.000000	0.000000	-0.000000	0.000000	0.000000
50.128160	10.795662	25.803107	-0.052187	0.112670	2.135384	0.000000	0.008753	0.000000	0.000000	-0.000000	0.000000	0.000000
50.425482	10.834906	25.739578	-0.079803	0.101001	2.137986	0.000000	0.008753	0.000000	0.000000	-0.000000	0.000000	0.000000
50.758816	10.898429	25.676605	-0.110764	0.087919	2.140904	0.000000	0.008753	0.000000	0.000000	-0.000000	0.000000	0.000000
51.092149	10.982591	25.622353	-0.141725	0.074836	2.143822	0.000000	0.008753	0.000000	-0.000000	-0.000000	0.000000	0.000000
51.426732	11.087602	25.577188	-0.082852	-0.145790	2.146729	0.000000	-0.008663	0.000000	-0.000000	-0.000000	0.000000	0.000000
51.724055	11.144897	25.667410	-0.082521	-0.220606	2.144153	0.000000	-0.013921	0.000000	-0.000000	-0.000000	0.000000	0.000000
52.165015	11.363154	25.576441	-0.414315	0.426119	2.151603	0.000000	0.047740	0.000000	-0.000000	-0.000000	0.000000	0.000000
52.605975	11.881236	24.921515	-0.765039	1.053456	2.186337	0.000000	0.109945	0.000000	-0.000000	-0.000000	0.000000	0.000000
53.046935	12.722814	23.732431	-1.150715	1.632862	2.248750	0.000000	0.173402	0.000000	-0.000001	-0.000000	0.000000	0.000000
53.487895	13.926337	22.063292	-1.588964	2.137973	2.339554	0.000000	0.238835	0.000000	-0.000001	-0.000000	0.000000	0.000000
53.933855	15.567416	19.965084	-2.104046	2.547143	2.461287	0.000000	0.307386	0.000000	-0.000001	-0.000000	0.000000	0.000000
54.482915	17.680197	17.604163	-1.721174	1.778170	2.609880	0.000000	0.233080	0.000000	-0.000001	-0.000000	0.000000	0.000000
55.031975	19.302886	16.013578	-1.216726	1.135853	2.716478	0.000000	0.154640	0.000000	-0.000001	-0.000000	0.000000	0.000000
55.581035	20.320863	15.080035	-0.626335	0.574440	2.779190	0.000000	0.073458	0.000000	-0.000001	-0.000000	0.000000	0.000000
56.130095	20.662224	14.737041	0.008297	0.053942	2.796904	0.000000	-0.009028	0.000000	-0.000002	-0.000000	0.000000	0.000000
56.428668	20.693832	14.687937	-0.060171	0.072015	2.796390	0.000000	-0.001720	0.000000	-0.000002	-0.000000	0.000000	0.000000
56.762001	20.739334	14.647531	-0.076337	0.049203	2.795817	0.000000	-0.001720	0.000000	-0.000002	-0.000000	0.000000	0.000000
57.095334	20.795615	14.622333	-0.092503	0.026391	2.795244	0.000000	-0.001720	0.000000	-0.000002	-0.000000	0.000000	0.000000
57.429918	20.862944	14.612334	-0.108730	0.003493	2.794668	0.000000	-0.001720	0.000000	-0.000002	-0.000000	0.000000	0.000000
57.727240	20.931887	14.616307	-0.177842	0.021336	2.794157	0.000000	0.005581	0.000000	-0.000002	-0.000000	0.000000	0.000000
58.276300	20.770011	14.873628	0.470920	-0.492761	2.774580	0.000000	-0.076786	0.000000	-0.000002	-0.000000	0.000000	0.000000
58.825360	19.909847	15.711335	1.086418	-1.041955	2.710087	0.000000	-0.157790	0.000000	-0.000002	-0.000000	0.000000	0.000000
59.374420	18.412153	17.189094	1.625177	-1.665366	2.601822	0.000000	-0.235996	0.000000	-0.000002	-0.000000	0.000000	0.000000
59.923480	16.382718	19.412164	2.049142	-2.407398	2.451704	0.000000	-0.310016	0.000000	-0.000002	0.000000	0.000000	0.000000
60.369440	14.794195	21.388124	1.525503	-2.004702	2.328740	0.000000	-0.241729	0.000000	-0.000002	-0.000000	0.000000	0.000000
60.810400	13.651471	22.944845	1.075773	-1.512165	2.236596	0.000000	-0.176593	0.000000	-0.000002	-0.000000	0.000000	0.000000
61.251360	12.882284	24.035074	0.675192	-0.950824	2.172704	0.000000	-0.113469	0.000000	-0.000002	-0.000000	0.000000	0.000000
61.692320	12.451491	24.609204	0.305458	-0.346223	2.136336	0.000000	-0.051636	0.000000	-0.000002	-0.000000	0.000000	0.000000
62.134530	12.339461	24.640581	-0.020161	0.213650	2.127084	0.000000	0.004392	0.000000	-0.000002	-0.000000	0.000000	0.000000
62.431853	12.358617	24.517286	-0.044266	0.201033	2.128390	0.000000	0.004392	0.000000	-0.000002	-0.000000	0.000000	0.000000
62.765186	12.397136	24.387979	-0.071291	0.186888	2.129854	0.000000	0.004392	0.000000	-0.000002	-0.000000	0.000000	0.000000
63.098520	12.453671	24.268102	-0.098315	0.172743	2.131318	0.000000	0.004392	0.000000	-0.000002	-0.000000	0.000000	0.000000
63.433103	12.528537	24.157259	-0.125441	0.158544	2.132787	0.000000	0.004392	0.000000	-0.000003	-0.000000	0.000000	0.000000
63.730426	12.610297	24.066732	-0.118622	0.086907	2.134093	0.000000	-0.000842	0.000000	-0.000003	-0.000000	0.000000	0.000000
64.171386	12.875434	23.725025	-0.484933	0.685061	2.147264	0.000000	0.060634	0.000000	-0.000003	-0.000000	0.000000	0.000000
64.612346	13.472141	22.867575	-0.873400	1.252046	2.187669	0.000000	0.122800	0.000000	-0.000003	-0.000000	0.000000	0.000000
65.053306	14.427679	21.533397	-1.301770	1.762064	2.255769	0.000000	0.186364	0.000000	-0.000003	-0.000000	0.000000	0.000000
65.494266	15.785704	19.783193	-1.789615	2.191909	2.352339	0.000000	0.252052	0.000000	-0.000003	-0.000001	0.000000	0.000000
65.940226	17.631430	17.671821	-2.363915	2.522781	2.480052	0.000000	0.321012	0.000000	-0.000003	-0.000001	0.000000	0.000000
66.489286	19.997266	15.309773	-1.919463	1.804598	2.635938	0.000000	0.245980	0.000000	-0.000004	-0.000000	0.000000	0.000000
67.038346	21.797249	13.661587	-1.339430	1.214953	2.749367	0.000000	0.166585	0.000000	-0.000004	-0.000000	0.000000	0.000000
67.587406	22.904237	12.609868	-0.664786	0.711845	2.818327	0.000000	0.084236	0.000000	-0.000004	-0.000000	0.000000	0.000000
68.136466	23.240037	12.079703	0.056815	0.259441	2.841594	0.000000	0.000392	0.000000	-0.000004	-0.000000	0.000000	0.000000
68.435038	23.246208	11.913935	-0.016757	0.264194	2.843928	0.000000	0.007817	0.000000	-0.000004	-0.000000	0.000000	0.000000
68.768372	23.262160	11.747783	-0.031100	0.234263	2.846533	0.000000	0.007817	0.000000	-0.000004	-0.000000	0.000000	0.000000
69.101705	23.287675	11.601584	-0.045444	0.204332	2.849139	0.000000	0.007817	0.000000	-0.000004	-0.000000	0.000000	0.000000
69.436288	23.322901	11.474904	-0.059841	0.174288	2.851755	0.000000	0.007817	0.000000	-0.000004	-0.000000	0.000000	0.000000
69.733611	23.362289	11.379203	-0.133678	0.177323	2.854079	0.000000	0.015274	0.000000	-0.000004	-0.000000	0.000000	0.000000
70.282671	23.107858	11.412291	0.594329	-0.237944	2.839277	0.000000	-0.069111	0.000000	-0.000004	0.000000	0.000000	0.000000
