#ParticleID	Turn	x[m]	xp	y[m]	yp	z[m]	dE[GeV]# s	beta_x	beta_y	alpha_x	alpha_y	D_x	D_y	D_px	D_py	orbit_x	orbit_px	orbit_y	orbit_py
0.300000	11.827283	24.964611	-0.012715	-0.027703	2.618184	0.000000	-0.000014	0.000000	-0.000000	0.000000	0.000000	0.000000
0.601250	11.842618	24.984940	-0.038190	-0.039779	2.618180	0.000000	-0.000014	0.000000	-0.000000	0.000000	0.000000	0.000000
0.898573	11.872803	25.012138	-0.034217	-0.113035	2.618176	0.000000	-0.006435	0.000000	-0.000000	0.000000	0.000000	0.000000
1.339533	12.055276	24.834403	-0.381162	0.514564	2.631632	0.000000	0.067524	0.000000	-0.000000	0.000000	0.000000	0.000000
1.780493	12.550221	24.111426	-0.745522	1.118750	2.677839	0.000000	0.142252	0.000000	-0.000000	0.000000	0.000000	0.000000
2.221453	13.380250	22.876101	-1.143942	1.672034	2.757324	0.000000	0.218600	0.000000	0.000000	0.000000	0.000000	0.000000
2.662413	14.583285	21.184635	-1.594625	2.149242	2.870991	0.000000	0.297437	0.000000	0.000000	0.000000	0.000000	0.000000
3.108373	16.235081	19.089179	-2.122460	2.529792	3.021997	0.000000	0.380152	0.000000	0.000000	0.000000	0.000000	0.000000
3.657433	18.353195	16.735760	-1.712414	1.781779	3.205452	0.000000	0.287114	0.000000	0.000001	0.000000	0.000000	0.000000
4.206493	19.951540	15.129655	-1.181411	1.160678	3.336348	0.000000	0.188984	0.000000	0.000001	0.000000	0.000000	0.000000
4.755553	20.917217	14.156465	-0.566959	0.622250	3.412363	0.000000	0.087501	0.000000	0.000001	0.000000	0.000000	0.000000
5.304613	21.182014	13.746872	0.087540	0.128143	3.432149	0.000000	-0.015534	0.000000	0.000001	0.000000	0.000000	0.000000
5.603185	21.167001	13.655563	0.018086	0.141757	3.430188	0.000000	-0.006566	0.000000	0.000001	0.000000	0.000000	0.000000
5.936519	21.160195	13.569358	0.002333	0.116856	3.427999	0.000000	-0.006566	0.000000	0.000001	0.000000	0.000000	0.000000
6.269852	21.163891	13.499754	-0.013420	0.091956	3.425811	0.000000	-0.006566	0.000000	0.000001	0.000000	0.000000	0.000000
6.604435	21.178162	13.446583	-0.029232	0.066962	3.423613	0.000000	-0.006566	0.000000	0.000001	0.000000	0.000000	0.000000
6.901758	21.199722	13.413368	-0.098674	0.079798	3.421661	0.000000	0.002374	0.000000	0.000001	0.000000	0.000000	0.000000
7.450818	20.946711	13.586306	0.556753	-0.396628	3.394764	0.000000	-0.100206	0.000000	0.000001	0.000000	0.000000	0.000000
7.999878	19.991398	14.294768	1.172854	-0.901305	3.311949	0.000000	-0.201008	0.000000	0.000002	0.000000	0.000000	0.000000
8.548938	18.401261	15.589215	1.706110	-1.470181	3.174687	0.000000	-0.298245	0.000000	0.000002	0.000000	0.000000	0.000000
9.097998	16.288620	17.561849	2.118855	-2.143773	2.985412	0.000000	-0.390192	0.000000	0.000002	0.000000	0.000000	0.000000
9.543958	14.640275	19.319617	1.590458	-1.781107	2.829708	0.000000	-0.308487	0.000000	0.000002	0.000000	0.000000	0.000000
9.984918	13.441233	20.700553	1.139021	-1.338632	2.710923	0.000000	-0.230780	0.000000	0.000002	0.000000	0.000000	0.000000
10.425878	12.615957	21.662809	0.739622	-0.835250	2.625793	0.000000	-0.155701	0.000000	0.000002	0.000000	0.000000	0.000000
10.866838	12.126745	22.162606	0.374014	-0.293865	2.573347	0.000000	-0.082395	0.000000	0.000002	0.000000	0.000000	0.000000
11.309048	11.951107	22.176685	0.054696	0.206448	2.552969	0.000000	-0.016289	0.000000	0.000002	0.000000	0.000000	0.000000
11.606371	11.926001	22.058078	0.029744	0.192470	2.548126	0.000000	-0.016289	0.000000	0.000002	0.000000	0.000000	0.000000
12.086371	11.916783	21.884139	-0.010540	0.169903	2.540307	0.000000	-0.016289	0.000000	0.000002	0.000000	0.000000	0.000000
12.566371	11.946238	21.731864	-0.050824	0.147336	2.532488	0.000000	-0.016289	0.000000	0.000002	0.000000	0.000000	0.000000
13.046371	12.014366	21.601254	-0.091108	0.124769	2.524670	0.000000	-0.016289	0.000000	0.000002	0.000000	0.000000	0.000000
13.526371	12.121165	21.492308	-0.131392	0.102202	2.516851	0.000000	-0.016289	0.000000	0.000003	0.000000	0.000000	0.000000
14.007621	12.267067	21.404827	-0.171780	0.079577	2.509012	0.000000	-0.016289	0.000000	0.000003	0.000000	0.000000	0.000000
14.304943	12.376634	21.361663	-0.166383	0.013215	2.504169	0.000000	-0.022429	0.000000	0.000003	0.000000	0.000000	0.000000
14.745903	12.682056	21.116182	-0.528873	0.541364	2.509909	0.000000	0.048491	0.000000	0.000003	0.000000	0.000000	0.000000
15.186863	13.316571	20.414040	-0.915527	1.044881	2.547015	0.000000	0.119963	0.000000	0.000003	0.000000	0.000000	0.000000
15.627823	14.309170	19.287183	-1.344008	1.500857	2.615907	0.000000	0.192802	0.000000	0.000003	0.000000	0.000000	0.000000
16.068783	15.705202	17.786883	-1.833893	1.888545	2.717372	0.000000	0.267837	0.000000	0.000003	0.000001	0.000000	0.000000
16.514743	17.592101	15.959900	-2.412322	2.191055	2.854260	0.000000	0.346384	0.000000	0.000004	0.000001	0.000000	0.000000
17.063803	20.015349	13.919798	-1.975001	1.546504	3.020716	0.000000	0.259057	0.000000	0.000004	0.000001	0.000000	0.000000
17.612863	21.878455	12.523211	-1.398177	1.012107	3.137890	0.000000	0.167134	0.000000	0.000004	0.000000	0.000000	0.000000
18.161923	23.049819	11.670661	-0.722592	0.549801	3.203704	0.000000	0.072247	0.000000	0.000004	0.000000	0.000000	0.000000
18.710983	23.446700	11.301426	0.004033	0.126656	3.216990	0.000000	-0.023922	0.000000	0.000005	0.000000	0.000000	0.000000
19.009556	23.484687	11.216242	-0.070002	0.129119	3.212357	0.000000	-0.015517	0.000000	0.000005	0.000000	0.000000	0.000000
19.342889	23.536110	11.140234	-0.084265	0.098905	3.207185	0.000000	-0.015517	0.000000	0.000005	0.000000	0.000000	0.000000
19.676223	23.597041	11.084369	-0.098529	0.068691	3.202013	0.000000	-0.015517	0.000000	0.000005	0.000000	0.000000	0.000000
20.010806	23.668056	11.048413	-0.230110	0.093104	3.196841	0.000000	0.000322	0.000000	0.000005	0.000000	0.000000	0.000000
20.308129	23.808823	11.001120	-0.305543	0.094703	3.196936	0.000000	0.008675	0.000000	0.000005	0.000000	0.000000	0.000000
20.857189	23.733711	11.119603	0.441533	-0.311769	3.175481	0.000000	-0.086712	0.000000	0.000005	-0.000000	0.000000	0.000000
21.406249	22.850561	11.693942	1.157422	-0.740447	3.101999	0.000000	-0.180560	0.000000	0.000005	-0.000000	0.000000	0.000000
21.955309	21.221754	12.765046	1.791555	-1.221865	2.977793	0.000000	-0.271206	0.000000	0.000005	-0.000000	0.000000	0.000000
22.504369	18.962340	14.409208	2.299143	-1.790314	2.805066	0.000000	-0.357041	0.000000	0.000004	-0.000000	0.000000	0.000000
22.950329	17.181842	15.885228	1.707457	-1.505483	2.663133	0.000000	-0.279836	0.000000	0.000004	-0.000000	0.000000	0.000000
23.391289	15.905284	17.061995	1.198478	-1.153010	2.556058	0.000000	-0.206272	0.000000	0.000004	-0.000000	0.000000	0.000000
23.832249	15.051855	17.903501	0.744253	-0.748077	2.480873	0.000000	-0.135057	0.000000	0.000004	-0.000000	0.000000	0.000000
24.273209	14.582565	18.371457	0.324031	-0.309106	2.436723	0.000000	-0.065380	0.000000	0.000004	-0.000000	0.000000	0.000000
24.715418	14.476087	18.444325	-0.045975	0.098630	2.423101	0.000000	-0.002390	0.000000	0.000004	0.000000	0.000000	0.000000
25.012741	14.509546	18.390515	-0.066557	0.082353	2.422390	0.000000	-0.002390	0.000000	0.000004	0.000000	0.000000	0.000000
25.346075	14.561609	18.341696	-0.089632	0.064105	2.421593	0.000000	-0.002390	0.000000	0.000004	0.000000	0.000000	0.000000
25.679408	14.629055	18.305042	-0.112708	0.045857	2.420797	0.000000	-0.002390	0.000000	0.000004	0.000000	0.000000	0.000000
26.013991	14.711927	18.280855	-0.016516	-0.120763	2.419972	0.000000	-0.022023	0.000000	0.000004	0.000000	0.000000	0.000000
26.311314	14.727759	18.357573	-0.000616	-0.182281	2.413425	0.000000	-0.027941	0.000000	0.000004	0.000000	0.000000	0.000000
26.752274	14.909776	18.319197	-0.413726	0.268977	2.416213	0.000000	0.040602	0.000000	0.000004	0.000000	0.000000	0.000000
27.193234	15.463050	17.886745	-0.845737	0.707997	2.449300	0.000000	0.109607	0.000000	0.000004	0.000000	0.000000	0.000000
27.634194	16.412857	17.079892	-1.316388	1.114804	2.513061	0.000000	0.179861	0.000000	0.000004	0.000000	0.000000	0.000000
28.075154	17.802592	15.935349	-1.847180	1.470888	2.608223	0.000000	0.252163	0.000000	0.000005	0.000000	0.000000	0.000000
28.521114	19.719897	14.487956	-2.467324	1.760961	2.737473	0.000000	0.327780	0.000000	0.000005	0.000001	0.000000	0.000000
29.070174	22.156801	12.875147	-1.944723	1.193777	2.894781	0.000000	0.244385	0.000000	0.000005	0.000000	0.000000	0.000000
29.619234	23.940538	11.835108	-1.284756	0.711622	3.005040	0.000000	0.156655	0.000000	0.000005	0.000000	0.000000	0.000000
30.168294	24.945114	11.293759	-0.534041	0.280154	3.066296	0.000000	0.066146	0.000000	0.000005	0.000000	0.000000	0.000000
30.717354	25.099570	11.212541	0.254396	-0.131359	3.077461	0.000000	-0.025536	0.000000	0.000005	-0.000000	0.000000	0.000000
31.015927	24.990497	11.281521	0.176499	-0.128970	3.072237	0.000000	-0.017496	0.000000	0.000005	-0.000000	0.000000	0.000000
31.349260	24.877416	11.377513	0.162745	-0.159008	3.066405	0.000000	-0.017496	0.000000	0.000005	-0.000000	0.000000	0.000000
31.682593	24.773504	11.493531	0.148991	-0.189046	3.060573	0.000000	-0.017496	0.000000	0.000005	-0.000000	0.000000	0.000000
32.017177	24.678423	11.630123	0.135185	-0.219197	3.054719	0.000000	-0.017496	0.000000	0.000005	-0.000000	0.000000	0.000000
32.314499	24.601684	11.768433	0.058640	-0.215243	3.049517	0.000000	-0.009528	0.000000	0.000005	-0.000000	0.000000	0.000000
32.863559	24.115838	12.244114	0.820989	-0.656226	3.019405	0.000000	-0.099998	0.000000	0.000005	-0.000000	0.000000	0.000000
33.412619	22.819887	13.226720	1.525348	-1.143951	2.940034	0.000000	-0.188694	0.000000	0.000005	-0.000000	0.000000	0.000000
33.961679	20.805369	14.786238	2.121963	-1.713157	2.812811	0.000000	-0.274043	0.000000	0.000005	-0.000001	0.000000	0.000000
34.510739	18.214580	17.033751	2.568694	-2.404387	2.639995	0.000000	-0.354532	0.000000	0.000004	-0.000001	0.000000	0.000000
34.956699	16.200241	19.044012	1.964349	-2.084505	2.498229	0.000000	-0.281605	0.000000	0.000004	-0.000001	0.000000	0.000000
35.397659	14.698251	20.706156	1.454755	-1.670528	2.389433	0.000000	-0.212315	0.000000	0.000004	-0.000000	0.000000	0.000000
35.838619	13.614787	21.968167	1.011624	-1.180543	2.310630	0.000000	-0.145442	0.000000	0.000004	-0.000000	0.000000	0.000000
36.279579	12.900347	22.772623	0.614712	-0.636844	2.260922	0.000000	-0.080226	0.000000	0.000003	-0.000000	0.000000	0.000000
36.721789	12.521602	23.083225	0.276484	-0.120829	2.239717	0.000000	-0.021416	0.000000	0.000003	-0.000000	0.000000	0.000000
37.019112	12.364791	23.158961	0.250924	-0.133897	2.233349	0.000000	-0.021416	0.000000	0.000003	-0.000000	0.000000	0.000000
37.352445	12.207060	23.253109	0.222269	-0.148548	2.226211	0.000000	-0.021416	0.000000	0.000003	-0.000000	0.000000	0.000000
37.685779	12.068433	23.357025	0.193613	-0.163200	2.219072	0.000000	-0.021416	0.000000	0.000003	-0.000000	0.000000	0.000000
38.020362	11.948497	23.471153	0.164850	-0.177906	2.211907	0.000000	-0.021416	0.000000	0.000003	-0.000000	0.000000	0.000000
38.317684	11.858069	23.580830	0.168369	-0.248800	2.205539	0.000000	-0.026824	0.000000	0.000003	-0.000000	0.000000	0.000000
38.758644	11.860820	23.539080	-0.174630	0.343119	2.207638	0.000000	0.036350	0.000000	0.000003	-0.000000	0.000000	0.000000
39.199604	12.168430	22.980221	-0.525608	0.919427	2.237658	0.000000	0.099939	0.000000	0.000003	-0.000000	0.000000	0.000000
39.640564	12.794954	21.929681	-0.900599	1.453901	2.295943	0.000000	0.164666	0.000000	0.000003	0.000000	0.000000	0.000000
40.081524	13.769015	20.435258	-1.316736	1.922224	2.383155	0.000000	0.231268	0.000000	0.000003	0.000000	0.000000	0.000000
40.527484	15.152681	18.542380	-1.796855	2.304366	2.501761	0.000000	0.300910	0.000000	0.000003	0.000000	0.000000	0.000000
41.076544	16.918598	16.415342	-1.400360	1.592463	2.646450	0.000000	0.225356	0.000000	0.000003	0.000000	0.000000	0.000000
41.625604	18.191889	15.003559	-0.904951	0.993987	2.748495	0.000000	0.145805	0.000000	0.000003	-0.000000	0.000000	0.000000
42.174664	18.882617	14.206473	-0.345620	0.466311	2.806087	0.000000	0.063668	0.000000	0.000003	-0.000000	0.000000	0.000000
42.723724	18.941990	13.967308	0.238123	-0.028151	2.818203	0.000000	-0.019598	0.000000	0.000003	-0.000000	0.000000	0.000000
43.022297	18.834223	13.968709	0.172309	-0.013035	2.814550	0.000000	-0.012235	0.000000	0.000003	-0.000000	0.000000	0.000000
43.502297	18.681402	13.997720	0.146067	-0.047404	2.808677	0.000000	-0.012235	0.000000	0.000003	-0.000000	0.000000	0.000000
43.982297	18.553774	14.059724	0.119825	-0.081772	2.802805	0.000000	-0.012235	0.000000	0.000003	-0.000000	0.000000	0.000000
44.462297	18.451338	14.154722	0.093583	-0.116141	2.796932	0.000000	-0.012235	0.000000	0.000003	-0.000000	0.000000	0.000000
44.942297	18.374095	14.282714	0.067341	-0.150509	2.791059	0.000000	-0.012235	0.000000	0.000002	-0.000000	0.000000	0.000000
45.423547	18.322168	14.443983	-0.049748	-0.113402	2.785188	0.000000	0.001564	0.000000	0.000002	-0.000000	0.000000	0.000000
45.720870	18.356587	14.517616	-0.113977	-0.096321	2.785654	0.000000	0.008843	0.000000	0.000002	-0.000000	0.000000	0.000000
46.269930	18.172653	14.904236	0.446992	-0.611984	2.767938	0.000000	-0.073278	0.000000	0.000002	-0.000000	0.000000	0.000000
46.818990	17.386478	15.877586	0.976389	-1.171237	2.705424	0.000000	-0.154100	0.000000	0.000002	-0.000000	0.000000	0.000000
47.368050	16.053592	17.506996	1.436818	-1.813916	2.599221	0.000000	-0.232188	0.000000	0.000002	-0.000000	0.000000	0.000000
47.917110	14.268145	19.908525	1.795757	-2.585795	2.451211	0.000000	-0.306157	0.000000	0.000002	-0.000000	0.000000	0.000000
48.363070	12.878612	22.043781	1.331106	-2.182074	2.329969	0.000000	-0.237861	0.000000	0.000001	-0.000000	0.000000	0.000000
48.804030	11.884868	23.753457	0.931036	-1.680340	2.239541	0.000000	-0.172672	0.000000	0.000001	-0.000000	0.000000	0.000000
49.244990	11.223934	24.985112	0.573503	-1.102153	2.177398	0.000000	-0.109448	0.000000	0.000001	-0.000000	0.000000	0.000000
49.685950	10.865614	25.682706	0.242171	-0.473818	2.142833	0.000000	-0.047472	0.000000	0.000001	-0.000000	0.000000	0.000000
50.128160	10.793666	25.814218	-0.051744	0.112722	2.135464	0.000000	0.008727	0.000000	0.000001	-0.000000	0.000000	0.000000
50.425482	10.832647	25.750657	-0.079363	0.101058	2.138059	0.000000	0.008727	0.000000	0.000001	-0.000000	0.000000	0.000000
50.758816	10.895878	25.687644	-0.110328	0.087981	2.140968	0.000000	0.008727	0.000000	0.000000	-0.000000	0.000000	0.000000
51.092149	10.979752	25.633349	-0.141293	0.074904	2.143877	0.000000	0.008727	0.000000	0.000000	-0.000000	0.000000	0.000000
51.426732	11.084475	25.588136	-0.082450	-0.145805	2.146776	0.000000	-0.008688	0.000000	0.000000	-0.000000	0.000000	0.000000
51.724055	11.141533	25.678366	-0.082133	-0.220643	2.144192	0.000000	-0.013947	0.000000	0.000000	-0.000000	0.000000	0.000000
52.165015	11.359412	25.587301	-0.413841	0.426372	2.151631	0.000000	0.047715	0.000000	0.000000	-0.000000	0.000000	0.000000
52.605975	11.877030	24.932028	-0.764456	1.053987	2.186353	0.000000	0.109921	0.000000	-0.000000	-0.000000	0.000000	0.000000
53.046935	12.718037	23.742362	-1.149997	1.633647	2.248756	0.000000	0.173378	0.000000	-0.000000	-0.000000	0.000000	0.000000
53.487895	13.920856	22.072431	-1.588079	2.138977	2.339549	0.000000	0.238810	0.000000	-0.000000	-0.000000	0.000000	0.000000
53.933855	15.561054	19.973246	-2.102951	2.548320	2.461271	0.000000	0.307361	0.000000	-0.000001	-0.000000	0.000000	0.000000
54.482915	17.672714	17.611208	-1.720237	1.779041	2.609851	0.000000	0.233056	0.000000	-0.000001	-0.000000	0.000000	0.000000
55.031975	19.294492	16.019806	-1.216015	1.136480	2.716436	0.000000	0.154618	0.000000	-0.000001	-0.000000	0.000000	0.000000
55.581035	20.311835	15.085688	-0.625899	0.574867	2.779136	0.000000	0.073436	0.000000	-0.000001	-0.000000	0.000000	0.000000
56.130095	20.652883	14.742319	0.008427	0.054201	2.796839	0.000000	-0.009047	0.000000	-0.000001	-0.000000	0.000000	0.000000
56.428668	20.684400	14.693050	-0.060022	0.072293	2.796320	0.000000	-0.001740	0.000000	-0.000001	-0.000000	0.000000	0.000000
56.762001	20.729806	14.652456	-0.076195	0.049488	2.795740	0.000000	-0.001740	0.000000	-0.000001	-0.000000	0.000000	0.000000
57.095334	20.785994	14.627066	-0.092369	0.026683	2.795160	0.000000	-0.001740	0.000000	-0.000001	-0.000000	0.000000	0.000000
57.429918	20.853235	14.616869	-0.108603	0.003793	2.794578	0.000000	-0.001740	0.000000	-0.000001	-0.000000	0.000000	0.000000
57.727240	20.922104	14.620661	-0.177695	0.021653	2.794061	0.000000	0.005561	0.000000	-0.000002	-0.000000	0.000000	0.000000
58.276300	20.760248	14.877702	0.470738	-0.492564	2.774474	0.000000	-0.076802	0.000000	-0.000002	-0.000000	0.000000	0.000000
58.825360	19.900460	15.715251	1.085920	-1.041864	2.709973	0.000000	-0.157803	0.000000	-0.000002	-0.000000	0.000000	0.000000
59.374420	18.403472	17.192966	1.624398	-1.665375	2.601702	0.000000	-0.236005	0.000000	-0.000002	-0.000000	0.000000	0.000000
59.923480	16.375022	19.416099	2.048137	-2.407506	2.451580	0.000000	-0.310021	0.000000	-0.000002	-0.000000	0.000000	0.000000
60.369440	14.787293	21.392101	1.524722	-2.004687	2.328614	0.000000	-0.241738	0.000000	-0.000002	-0.000000	0.000000	0.000000
60.810400	13.645174	22.948754	1.075178	-1.512027	2.236465	0.000000	-0.176605	0.000000	-0.000002	-0.000000	0.000000	0.000000
61.251360	12.876439	24.038809	0.674756	-0.950571	2.172567	0.000000	-0.113484	0.000000	-0.000002	-0.000000	0.000000	0.000000
61.692320	12.445968	24.612669	0.305162	-0.345865	2.136192	0.000000	-0.051655	0.000000	-0.000002	-0.000000	0.000000	0.000000
62.134530	12.334143	24.643688	-0.020344	0.214089	2.126931	0.000000	0.004369	0.000000	-0.000002	-0.000000	0.000000	0.000000
62.431853	12.353411	24.520133	-0.044460	0.201471	2.128230	0.000000	0.004369	0.000000	-0.000002	-0.000000	0.000000	0.000000
62.765186	12.392063	24.390534	-0.071496	0.187325	2.129687	0.000000	0.004369	0.000000	-0.000002	-0.000000	0.000000	0.000000
63.098520	12.448739	24.270366	-0.098533	0.173179	2.131143	0.000000	0.004369	0.000000	-0.000002	-0.000000	0.000000	0.000000
63.433103	12.523754	24.159231	-0.125671	0.158980	2.132605	0.000000	0.004369	0.000000	-0.000002	-0.000000	0.000000	0.000000
63.730426	12.605653	24.068446	-0.118873	0.087338	2.133904	0.000000	-0.000864	0.000000	-0.000003	-0.000000	0.000000	0.000000
64.171386	12.870968	23.726342	-0.485085	0.685526	2.147064	0.000000	0.060607	0.000000	-0.000003	-0.000000	0.000000	0.000000
64.612346	13.467767	22.868475	-0.873459	1.252524	2.187456	0.000000	0.122768	0.000000	-0.000003	-0.000000	0.000000	0.000000
65.053306	14.423317	21.533877	-1.301739	1.762533	2.255541	0.000000	0.186327	0.000000	-0.000003	-0.000000	0.000000	0.000000
65.494266	15.781274	19.783271	-1.789492	2.192348	2.352093	0.000000	0.252008	0.000000	-0.000003	-0.000001	0.000000	0.000000
65.940226	17.626847	17.671529	-2.363694	2.523170	2.479785	0.000000	0.320961	0.000000	-0.000003	-0.000001	0.000000	0.000000
66.489286	19.992536	15.309079	-1.919417	1.804945	2.635646	0.000000	0.245939	0.000000	-0.000004	-0.000001	0.000000	0.000000
67.038346	21.792567	13.660525	-1.339562	1.215282	2.749055	0.000000	0.166554	0.000000	-0.000004	-0.000000	0.000000	0.000000
67.587406	22.899794	12.608443	-0.665087	0.712180	2.818000	0.000000	0.084214	0.000000	-0.000004	-0.000000	0.000000	0.000000
68.136466	23.236009	12.077896	0.056366	0.259806	2.841258	0.000000	0.000382	0.000000	-0.000004	-0.000000	0.000000	0.000000
68.435038	23.242441	11.911916	-0.017197	0.264545	2.843589	0.000000	0.007805	0.000000	-0.000004	-0.000000	0.000000	0.000000
68.768372	23.258688	11.745533	-0.031543	0.234604	2.846191	0.000000	0.007805	0.000000	-0.000004	-0.000000	0.000000	0.000000
69.101705	23.284499	11.599111	-0.045889	0.204662	2.848793	0.000000	0.007805	0.000000	-0.000004	-0.000000	0.000000	0.000000
69.436288	23.320024	11.472213	-0.060289	0.174609	2.851404	0.000000	0.007805	0.000000	-0.000004	-0.000000	0.000000	0.000000
69.733611	23.359679	11.376324	-0.134121	0.177627	2.853725	0.000000	0.015262	0.000000	-0.000004	-0.000000	0.000000	0.000000
70.282671	23.105779	11.409034	0.593812	-0.237554	2.838920	0.000000	-0.069112	0.000000	-0.000005	0.000000	0.000000	0.000000
