#ParticleID	Turn	x[m]	xp	y[m]	yp	z[m]	dE[GeV]# s	beta_x	beta_y	alpha_x	alpha_y	D_x	D_y	D_px	D_py	orbit_x	orbit_px	orbit_y	orbit_py
0.300000	11.823814	24.978043	-0.012240	-0.027628	2.618116	0.000000	0.000011	0.000000	-0.000000	0.000001	0.000000	0.000000
0.601250	11.838865	24.998325	-0.037722	-0.039698	2.618119	0.000000	0.000011	0.000000	-0.000000	0.000001	0.000000	0.000000
0.898573	11.868773	25.025473	-0.033766	-0.112980	2.618123	0.000000	-0.006409	0.000000	-0.000000	0.000001	0.000000	0.000000
1.339533	12.050805	24.847535	-0.380607	0.514969	2.631590	0.000000	0.067549	0.000000	0.000000	0.000001	0.000000	0.000000
1.780493	12.545206	24.124051	-0.744838	1.119488	2.677807	0.000000	0.142275	0.000000	0.000000	0.000001	0.000000	0.000000
2.221453	13.374564	22.887940	-1.143098	1.673072	2.757302	0.000000	0.218623	0.000000	0.000001	0.000001	0.000000	0.000000
2.662413	14.576770	21.195443	-1.593583	2.150531	2.870980	0.000000	0.297460	0.000000	0.000001	0.000001	0.000000	0.000000
3.108373	16.227529	19.098746	-2.121170	2.531275	3.021996	0.000000	0.380175	0.000000	0.000001	0.000001	0.000000	0.000000
3.657433	18.344323	16.743909	-1.711313	1.782892	3.205463	0.000000	0.287136	0.000000	0.000002	0.000001	0.000000	0.000000
4.206493	19.941599	15.136748	-1.180577	1.161501	3.336370	0.000000	0.189005	0.000000	0.000002	0.000001	0.000000	0.000000
4.755553	20.906534	14.162786	-0.566451	0.622841	3.412397	0.000000	0.087522	0.000000	0.000002	0.000000	0.000000	0.000000
5.304613	21.170971	13.752651	0.087686	0.128545	3.432194	0.000000	-0.015514	0.000000	0.000002	0.000000	0.000000	0.000000
5.603185	21.155855	13.661092	0.018253	0.142179	3.430239	0.000000	-0.006547	0.000000	0.000002	0.000000	0.000000	0.000000
5.936519	21.148940	13.574603	0.002492	0.117286	3.428057	0.000000	-0.006547	0.000000	0.000003	0.000000	0.000000	0.000000
6.269852	21.152533	13.504711	-0.013269	0.092393	3.425874	0.000000	-0.006547	0.000000	0.000003	0.000000	0.000000	0.000000
6.604435	21.166705	13.451245	-0.029090	0.067406	3.423684	0.000000	-0.006547	0.000000	0.000003	0.000000	0.000000	0.000000
6.901758	21.188183	13.417764	-0.098508	0.080259	3.421737	0.000000	0.002393	0.000000	0.000003	0.000000	0.000000	0.000000
7.450818	20.935203	13.590262	0.556531	-0.396284	3.394849	0.000000	-0.100189	0.000000	0.000003	0.000000	0.000000	0.000000
7.999878	19.980341	14.298398	1.172260	-0.901052	3.312043	0.000000	-0.200994	0.000000	0.000003	0.000000	0.000000	0.000000
8.548938	18.391043	15.592609	1.705185	-1.470001	3.174788	0.000000	-0.298234	0.000000	0.000003	0.000000	0.000000	0.000000
9.097998	16.279570	17.565081	2.117665	-2.143655	2.985518	0.000000	-0.390185	0.000000	0.000003	-0.000000	0.000000	0.000000
9.543958	14.632165	19.322690	1.589532	-1.780869	2.829818	0.000000	-0.308477	0.000000	0.000003	0.000000	0.000000	0.000000
9.984918	13.433839	20.703367	1.138315	-1.338286	2.711039	0.000000	-0.230767	0.000000	0.000003	0.000000	0.000000	0.000000
10.425878	12.609102	21.665277	0.739103	-0.834812	2.625915	0.000000	-0.155685	0.000000	0.000003	0.000000	0.000000	0.000000
10.866838	12.120273	22.164654	0.373659	-0.293355	2.573477	0.000000	-0.082376	0.000000	0.000004	0.000000	0.000000	0.000000
11.309048	11.944882	22.178259	0.054473	0.207004	2.553108	0.000000	-0.016266	0.000000	0.000004	0.000000	0.000000	0.000000
11.606371	11.919913	22.059322	0.029508	0.193023	2.548271	0.000000	-0.016266	0.000000	0.000004	0.000000	0.000000	0.000000
12.086371	11.910931	21.884854	-0.010796	0.170453	2.540464	0.000000	-0.016266	0.000000	0.000004	0.000000	0.000000	0.000000
12.566371	11.940640	21.732053	-0.051099	0.147883	2.532656	0.000000	-0.016266	0.000000	0.000004	0.000000	0.000000	0.000000
13.046371	12.009042	21.600919	-0.091403	0.125313	2.524848	0.000000	-0.016266	0.000000	0.000004	0.000000	0.000000	0.000000
13.526371	12.116135	21.491453	-0.131707	0.102742	2.517040	0.000000	-0.016266	0.000000	0.000005	0.000000	0.000000	0.000000
14.007621	12.262350	21.403453	-0.172116	0.080113	2.509212	0.000000	-0.016266	0.000000	0.000005	0.000000	0.000000	0.000000
14.304943	12.372120	21.359971	-0.166742	0.013754	2.504376	0.000000	-0.022407	0.000000	0.000005	0.000000	0.000000	0.000000
14.745903	12.677817	21.114038	-0.529142	0.541846	2.510127	0.000000	0.048519	0.000000	0.000005	0.000001	0.000000	0.000000
15.186863	13.312534	20.411504	-0.915716	1.045283	2.547246	0.000000	0.119997	0.000000	0.000005	0.000001	0.000000	0.000000
15.627823	14.305268	19.284334	-1.344127	1.501162	2.616155	0.000000	0.192842	0.000000	0.000006	0.000001	0.000000	0.000000
16.068783	15.701376	17.783814	-1.833947	1.888738	2.717638	0.000000	0.267883	0.000000	0.000006	0.000001	0.000000	0.000000
16.514743	17.588294	15.956712	-2.412312	2.191126	2.854548	0.000000	0.346438	0.000000	0.000007	0.000001	0.000000	0.000000
17.063803	20.011625	13.916502	-1.975158	1.546631	3.021031	0.000000	0.259100	0.000000	0.000007	0.000001	0.000000	0.000000
17.612863	21.874990	12.519741	-1.398489	1.012298	3.138226	0.000000	0.167167	0.000000	0.000008	0.000001	0.000000	0.000000
18.161923	23.046772	11.666941	-0.723037	0.550070	3.204055	0.000000	0.072269	0.000000	0.000008	0.000000	0.000000	0.000000
18.710983	23.444201	11.297359	0.003487	0.127022	3.217350	0.000000	-0.023911	0.000000	0.000008	0.000000	0.000000	0.000000
19.009556	23.482510	11.211967	-0.070542	0.129461	3.212721	0.000000	-0.015506	0.000000	0.000008	0.000000	0.000000	0.000000
19.342889	23.534293	11.135736	-0.084808	0.099233	3.207552	0.000000	-0.015506	0.000000	0.000008	0.000000	0.000000	0.000000
19.676223	23.595587	11.079657	-0.099074	0.069004	3.202383	0.000000	-0.015506	0.000000	0.000008	0.000000	0.000000	0.000000
20.010806	23.666968	11.043496	-0.230652	0.093379	3.197215	0.000000	0.000335	0.000000	0.000008	0.000000	0.000000	0.000000
20.308129	23.808058	10.996044	-0.306085	0.094950	3.197315	0.000000	0.008689	0.000000	0.000008	0.000000	0.000000	0.000000
20.857189	23.733553	11.114175	0.440978	-0.311373	3.175864	0.000000	-0.086710	0.000000	0.000008	-0.000000	0.000000	0.000000
21.406249	22.851002	11.687986	1.156892	-0.739874	3.102379	0.000000	-0.180571	0.000000	0.000008	-0.000000	0.000000	0.000000
21.955309	21.222745	12.758347	1.791089	-1.221075	2.978164	0.000000	-0.271229	0.000000	0.000008	-0.000001	0.000000	0.000000
22.504369	18.963794	14.401496	2.298772	-1.789250	2.805421	0.000000	-0.357076	0.000000	0.000008	-0.000001	0.000000	0.000000
22.950329	17.183623	15.876643	1.707091	-1.504595	2.663475	0.000000	-0.279861	0.000000	0.000007	-0.000001	0.000000	0.000000
23.391289	15.907391	17.052719	1.198100	-1.152338	2.556390	0.000000	-0.206289	0.000000	0.000007	-0.000000	0.000000	0.000000
23.832249	15.054307	17.893739	0.743846	-0.747651	2.481200	0.000000	-0.135065	0.000000	0.000007	-0.000000	0.000000	0.000000
24.273209	14.585395	18.361436	0.323577	-0.308946	2.437048	0.000000	-0.065380	0.000000	0.000007	-0.000000	0.000000	0.000000
24.715418	14.479348	18.434284	-0.046491	0.098543	2.423428	0.000000	-0.002382	0.000000	0.000007	0.000000	0.000000	0.000000
25.012741	14.513112	18.380528	-0.067070	0.082257	2.422720	0.000000	-0.002382	0.000000	0.000007	0.000000	0.000000	0.000000
25.346075	14.565516	18.331776	-0.090141	0.063999	2.421926	0.000000	-0.002382	0.000000	0.000007	0.000000	0.000000	0.000000
25.679408	14.633300	18.295196	-0.113212	0.045741	2.421131	0.000000	-0.002382	0.000000	0.000007	0.000000	0.000000	0.000000
26.013991	14.716507	18.271090	-0.016979	-0.120809	2.420310	0.000000	-0.022018	0.000000	0.000007	0.000000	0.000000	0.000000
26.311314	14.732612	18.347837	-0.001062	-0.182311	2.413763	0.000000	-0.027936	0.000000	0.000007	0.000000	0.000000	0.000000
26.752274	14.915078	18.309604	-0.414298	0.268685	2.416556	0.000000	0.040615	0.000000	0.000007	0.000000	0.000000	0.000000
27.193234	15.468921	17.877521	-0.846462	0.707456	2.449650	0.000000	0.109629	0.000000	0.000007	0.000000	0.000000	0.000000
27.634194	16.419448	17.071247	-1.317299	1.114037	2.513423	0.000000	0.179892	0.000000	0.000007	0.000001	0.000000	0.000000
28.075154	17.810083	15.927467	-1.848319	1.469931	2.608601	0.000000	0.252204	0.000000	0.000008	0.000001	0.000000	0.000000
28.521114	19.728525	14.480996	-2.468744	1.759858	2.737871	0.000000	0.327831	0.000000	0.000008	0.000001	0.000000	0.000000
29.070174	22.166878	12.869250	-1.945925	1.192934	2.895203	0.000000	0.244423	0.000000	0.000009	0.000001	0.000000	0.000000
29.619234	23.951775	11.830020	-1.285655	0.710981	3.005479	0.000000	0.156678	0.000000	0.000009	0.000000	0.000000	0.000000
30.168294	24.957141	11.289286	-0.534573	0.279669	3.066743	0.000000	0.066155	0.000000	0.000009	0.000000	0.000000	0.000000
30.717354	25.111961	11.208532	0.254269	-0.131723	3.077910	0.000000	-0.025542	0.000000	0.000009	-0.000000	0.000000	0.000000
31.015927	25.002979	11.277740	0.176348	-0.129357	3.072685	0.000000	-0.017500	0.000000	0.000009	-0.000000	0.000000	0.000000
31.349260	24.889996	11.373996	0.162602	-0.159409	3.066851	0.000000	-0.017500	0.000000	0.000009	-0.000000	0.000000	0.000000
31.682593	24.786177	11.490285	0.148855	-0.189460	3.061018	0.000000	-0.017500	0.000000	0.000009	-0.000000	0.000000	0.000000
32.017177	24.691184	11.627158	0.135057	-0.219624	3.055163	0.000000	-0.017500	0.000000	0.000009	-0.000000	0.000000	0.000000
32.314499	24.614519	11.765726	0.058488	-0.215689	3.049960	0.000000	-0.009532	0.000000	0.000009	-0.000000	0.000000	0.000000
32.863559	24.128605	12.241866	0.821264	-0.656621	3.019841	0.000000	-0.100016	0.000000	0.000009	-0.000000	0.000000	0.000000
33.412619	22.832124	13.224889	1.526031	-1.144322	2.940456	0.000000	-0.188726	0.000000	0.000008	-0.000001	0.000000	0.000000
33.961679	20.816652	14.784814	2.123007	-1.713530	2.813213	0.000000	-0.274088	0.000000	0.000008	-0.000001	0.000000	0.000000
34.510739	18.224553	17.032750	2.570023	-2.404790	2.640369	0.000000	-0.354589	0.000000	0.000007	-0.000001	0.000000	0.000000
34.956699	16.209164	19.043405	1.965383	-2.084985	2.498579	0.000000	-0.281654	0.000000	0.000007	-0.000001	0.000000	0.000000
35.397659	14.706373	20.705999	1.455542	-1.671062	2.389765	0.000000	-0.212354	0.000000	0.000006	-0.000001	0.000000	0.000000
35.838619	13.622309	21.968495	1.012201	-1.181107	2.310946	0.000000	-0.145473	0.000000	0.000006	-0.000001	0.000000	0.000000
36.279579	12.907444	22.773453	0.615105	-0.637413	2.261226	0.000000	-0.080249	0.000000	0.000006	-0.000001	0.000000	0.000000
36.721789	12.528426	23.084550	0.276727	-0.121378	2.240012	0.000000	-0.021432	0.000000	0.000006	-0.000000	0.000000	0.000000
37.019112	12.371467	23.160613	0.251178	-0.134447	2.233640	0.000000	-0.021432	0.000000	0.000005	-0.000000	0.000000	0.000000
37.352445	12.213563	23.255129	0.222534	-0.149100	2.226497	0.000000	-0.021432	0.000000	0.000005	-0.000000	0.000000	0.000000
37.685779	12.074755	23.359413	0.193891	-0.163752	2.219353	0.000000	-0.021432	0.000000	0.000005	-0.000000	0.000000	0.000000
38.020362	11.954629	23.473911	0.165140	-0.178460	2.212182	0.000000	-0.021432	0.000000	0.000005	-0.000000	0.000000	0.000000
38.317684	11.864026	23.583917	0.168683	-0.249361	2.205810	0.000000	-0.026841	0.000000	0.000005	-0.000000	0.000000	0.000000
38.758644	11.866559	23.542625	-0.174448	0.342647	2.207903	0.000000	0.036341	0.000000	0.000005	-0.000000	0.000000	0.000000
39.199604	12.174063	22.984134	-0.525550	0.919066	2.237921	0.000000	0.099936	0.000000	0.000005	-0.000000	0.000000	0.000000
39.640564	12.800589	21.933857	-0.900662	1.453668	2.296206	0.000000	0.164670	0.000000	0.000005	-0.000000	0.000000	0.000000
40.081524	13.774760	20.439579	-1.316924	1.922129	2.383422	0.000000	0.231279	0.000000	0.000005	0.000000	0.000000	0.000000
40.527484	15.158653	18.546723	-1.797176	2.304415	2.502034	0.000000	0.300928	0.000000	0.000005	0.000000	0.000000	0.000000
41.076544	16.924802	16.419688	-1.400461	1.592409	2.646730	0.000000	0.225365	0.000000	0.000005	0.000000	0.000000	0.000000
41.625604	18.198079	15.008022	-0.904823	0.993827	2.748777	0.000000	0.145805	0.000000	0.000005	-0.000000	0.000000	0.000000
42.174664	18.888545	14.211175	-0.345274	0.466033	2.806366	0.000000	0.063659	0.000000	0.000005	-0.000000	0.000000	0.000000
42.723724	18.947429	13.972388	0.238664	-0.028566	2.818475	0.000000	-0.019617	0.000000	0.000005	-0.000000	0.000000	0.000000
43.022297	18.839346	13.974028	0.172838	-0.013430	2.814817	0.000000	-0.012253	0.000000	0.000004	-0.000000	0.000000	0.000000
43.502297	18.686017	14.003411	0.146598	-0.047786	2.808936	0.000000	-0.012253	0.000000	0.000004	-0.000000	0.000000	0.000000
43.982297	18.557878	14.065777	0.120358	-0.082142	2.803055	0.000000	-0.012253	0.000000	0.000004	-0.000000	0.000000	0.000000
44.462297	18.454929	14.161123	0.094119	-0.116497	2.797174	0.000000	-0.012253	0.000000	0.000004	-0.000000	0.000000	0.000000
44.942297	18.377170	14.289451	0.067879	-0.150853	2.791293	0.000000	-0.012253	0.000000	0.000004	-0.000000	0.000000	0.000000
45.423547	18.324724	14.451045	-0.049220	-0.113698	2.785413	0.000000	0.001548	0.000000	0.000003	-0.000000	0.000000	0.000000
45.720870	18.358829	14.524851	-0.113451	-0.096589	2.785874	0.000000	0.008827	0.000000	0.000003	-0.000000	0.000000	0.000000
46.269930	18.174280	14.911889	0.447579	-0.612481	2.768148	0.000000	-0.073301	0.000000	0.000003	-0.000000	0.000000	0.000000
46.818990	17.387447	15.885925	0.976994	-1.171998	2.705619	0.000000	-0.154129	0.000000	0.000003	-0.000001	0.000000	0.000000
47.368050	16.053906	17.516340	1.437399	-1.814994	2.599398	0.000000	-0.232223	0.000000	0.000003	-0.000001	0.000000	0.000000
47.917110	14.267853	19.919263	1.796273	-2.587269	2.451367	0.000000	-0.306198	0.000000	0.000002	-0.000001	0.000000	0.000000
48.363070	12.877880	22.055733	1.331580	-2.183313	2.330108	0.000000	-0.237899	0.000000	0.000002	-0.000001	0.000000	0.000000
48.804030	11.883727	23.766378	0.931492	-1.681290	2.239664	0.000000	-0.172705	0.000000	0.000002	-0.000001	0.000000	0.000000
49.244990	11.222392	24.998726	0.573960	-1.102769	2.177508	0.000000	-0.109479	0.000000	0.000001	-0.000001	0.000000	0.000000
49.685950	10.863660	25.696706	0.242651	-0.474073	2.142930	0.000000	-0.047500	0.000000	0.000001	-0.000001	0.000000	0.000000
50.128160	10.791270	25.828278	-0.051225	0.112806	2.135548	0.000000	0.008701	0.000000	0.000001	-0.000001	0.000000	0.000000
50.425482	10.829944	25.764665	-0.078850	0.101148	2.138136	0.000000	0.008701	0.000000	0.000001	-0.000001	0.000000	0.000000
50.758816	10.892834	25.701590	-0.109820	0.088078	2.141036	0.000000	0.008701	0.000000	0.000000	-0.000001	0.000000	0.000000
51.092149	10.976371	25.647228	-0.140790	0.075008	2.143937	0.000000	0.008701	0.000000	0.000000	-0.000001	0.000000	0.000000
51.426732	11.080759	25.601944	-0.081982	-0.145807	2.146827	0.000000	-0.008715	0.000000	0.000000	-0.000001	0.000000	0.000000
51.724055	11.137541	25.692174	-0.081682	-0.220672	2.144236	0.000000	-0.013973	0.000000	-0.000000	-0.000001	0.000000	0.000000
52.165015	11.354978	25.600973	-0.413288	0.426708	2.151663	0.000000	0.047690	0.000000	-0.000000	-0.000001	0.000000	0.000000
52.605975	11.872053	24.945249	-0.763775	1.054672	2.186375	0.000000	0.109896	0.000000	-0.000001	-0.000001	0.000000	0.000000
53.046935	12.712391	23.754835	-1.149157	1.634650	2.248766	0.000000	0.173354	0.000000	-0.000001	-0.000001	0.000000	0.000000
53.487895	13.914385	22.083895	-1.587040	2.140253	2.339549	0.000000	0.238786	0.000000	-0.000001	-0.000001	0.000000	0.000000
53.933855	15.553550	19.983470	-2.101665	2.549811	2.461260	0.000000	0.307337	0.000000	-0.000001	-0.000001	0.000000	0.000000
54.482915	17.663893	17.620014	-1.719139	1.780148	2.609827	0.000000	0.233032	0.000000	-0.000002	-0.000001	0.000000	0.000000
55.031975	19.284606	16.027571	-1.215182	1.137280	2.716399	0.000000	0.154595	0.000000	-0.000002	-0.000001	0.000000	0.000000
55.581035	20.301209	15.092716	-0.625391	0.575418	2.779087	0.000000	0.073415	0.000000	-0.000002	-0.000000	0.000000	0.000000
56.130095	20.641895	14.748860	0.008575	0.054541	2.796779	0.000000	-0.009067	0.000000	-0.000003	-0.000000	0.000000	0.000000
56.428668	20.673309	14.699375	-0.059854	0.072659	2.796254	0.000000	-0.001759	0.000000	-0.000003	-0.000000	0.000000	0.000000
56.762001	20.718605	14.658535	-0.076036	0.049863	2.795667	0.000000	-0.001759	0.000000	-0.000003	-0.000000	0.000000	0.000000
57.095334	20.774689	14.632892	-0.092217	0.027066	2.795081	0.000000	-0.001759	0.000000	-0.000003	-0.000000	0.000000	0.000000
57.429918	20.841833	14.622436	-0.108460	0.004184	2.794492	0.000000	-0.001759	0.000000	-0.000003	-0.000000	0.000000	0.000000
57.727240	20.910619	14.625993	-0.177530	0.022067	2.793969	0.000000	0.005541	0.000000	-0.000003	-0.000000	0.000000	0.000000
58.276300	20.748794	14.882662	0.470516	-0.492296	2.774373	0.000000	-0.076819	0.000000	-0.000003	-0.000000	0.000000	0.000000
58.825360	19.889455	15.719988	1.085328	-1.041723	2.709863	0.000000	-0.157817	0.000000	-0.000004	-0.000000	0.000000	0.000000
59.374420	18.393302	17.197612	1.623477	-1.665351	2.601585	0.000000	-0.236015	0.000000	-0.000004	-0.000000	0.000000	0.000000
59.923480	16.366016	19.420781	2.046952	-2.407597	2.451460	0.000000	-0.310027	0.000000	-0.000004	0.000000	0.000000	0.000000
60.369440	14.779222	21.396798	1.523800	-2.004627	2.328490	0.000000	-0.241747	0.000000	-0.000004	-0.000000	0.000000	0.000000
60.810400	13.637817	22.953334	1.074475	-1.511821	2.236336	0.000000	-0.176617	0.000000	-0.000004	-0.000000	0.000000	0.000000
61.251360	12.869618	24.043145	0.674240	-0.950227	2.172432	0.000000	-0.113500	0.000000	-0.000004	-0.000000	0.000000	0.000000
61.692320	12.439528	24.616647	0.304809	-0.345399	2.136050	0.000000	-0.051674	0.000000	-0.000004	-0.000000	0.000000	0.000000
62.134530	12.327950	24.647209	-0.020565	0.214645	2.126779	0.000000	0.004347	0.000000	-0.000004	-0.000000	0.000000	0.000000
62.431853	12.347353	24.523323	-0.044693	0.202026	2.128072	0.000000	0.004347	0.000000	-0.000004	-0.000000	0.000000	0.000000
62.765186	12.386165	24.393355	-0.071744	0.187879	2.129521	0.000000	0.004347	0.000000	-0.000004	-0.000000	0.000000	0.000000
63.098520	12.443011	24.272818	-0.098794	0.173732	2.130970	0.000000	0.004347	0.000000	-0.000004	-0.000000	0.000000	0.000000
63.433103	12.518205	24.161314	-0.125946	0.159531	2.132424	0.000000	0.004347	0.000000	-0.000005	-0.000000	0.000000	0.000000
63.730426	12.600272	24.070201	-0.119173	0.087882	2.133716	0.000000	-0.000886	0.000000	-0.000005	-0.000000	0.000000	0.000000
64.171386	12.865799	23.727600	-0.485269	0.686103	2.146865	0.000000	0.060579	0.000000	-0.000005	-0.000001	0.000000	0.000000
64.612346	13.462713	22.869220	-0.873536	1.253107	2.187244	0.000000	0.122735	0.000000	-0.000005	-0.000001	0.000000	0.000000
65.053306	14.418286	21.534115	-1.301713	1.763095	2.255313	0.000000	0.186288	0.000000	-0.000005	-0.000001	0.000000	0.000000
65.494266	15.776174	19.783031	-1.789361	2.192864	2.351848	0.000000	0.251963	0.000000	-0.000006	-0.000001	0.000000	0.000000
65.940226	17.621582	17.670858	-2.363453	2.523616	2.479519	0.000000	0.320910	0.000000	-0.000006	-0.000001	0.000000	0.000000
66.489286	19.987116	15.307945	-1.919378	1.805349	2.635354	0.000000	0.245897	0.000000	-0.000007	-0.000001	0.000000	0.000000
67.038346	21.787216	13.658956	-1.339728	1.215673	2.748742	0.000000	0.166521	0.000000	-0.000007	-0.000001	0.000000	0.000000
67.587406	22.894734	12.606439	-0.665447	0.712587	2.817673	0.000000	0.084193	0.000000	-0.000008	-0.000000	0.000000	0.000000
68.136466	23.231438	12.075425	0.055838	0.260256	2.840922	0.000000	0.000370	0.000000	-0.000008	-0.000000	0.000000	0.000000
68.435038	23.238181	11.909183	-0.017717	0.264978	2.843249	0.000000	0.007794	0.000000	-0.000008	-0.000000	0.000000	0.000000
68.768372	23.254775	11.742516	-0.032066	0.235023	2.845847	0.000000	0.007794	0.000000	-0.000008	-0.000000	0.000000	0.000000
69.101705	23.280935	11.595819	-0.046415	0.205068	2.848445	0.000000	0.007794	0.000000	-0.000008	-0.000000	0.000000	0.000000
69.436288	23.316814	11.468654	-0.060817	0.175001	2.851053	0.000000	0.007794	0.000000	-0.000008	-0.000000	0.000000	0.000000
69.733611	23.356784	11.372535	-0.134647	0.177999	2.853370	0.000000	0.015249	0.000000	-0.000008	-0.000000	0.000000	0.000000
70.282671	23.103508	11.404777	0.593206	-0.237068	2.838561	0.000000	-0.069113	0.000000	-0.000008	0.000000	0.000000	0.000000
