#ParticleID	Turn	x[m]	xp	y[m]	yp	z[m]	dE[GeV]# s	beta_x	beta_y	alpha_x	alpha_y	D_x	D_y	D_px	D_py	orbit_x	orbit_px	orbit_y	orbit_py
0.300000	11.820892	24.989743	-0.011856	-0.027547	2.618072	0.000000	0.000028	0.000000	0.000000	0.000001	0.000000	0.000000
0.601250	11.835713	25.009974	-0.037344	-0.039611	2.618081	0.000000	0.000028	0.000000	0.000001	0.000001	0.000000	0.000000
0.898573	11.865399	25.037069	-0.033403	-0.112916	2.618089	0.000000	-0.006392	0.000000	0.000001	0.000001	0.000000	0.000000
1.339533	12.047073	24.858939	-0.380158	0.515339	2.631563	0.000000	0.067564	0.000000	0.000001	0.000001	0.000000	0.000000
1.780493	12.541033	24.135000	-0.744282	1.120146	2.677787	0.000000	0.142291	0.000000	0.000001	0.000001	0.000000	0.000000
2.221453	13.369844	22.898192	-1.142410	1.673988	2.757289	0.000000	0.218637	0.000000	0.000002	0.000001	0.000000	0.000000
2.662413	14.571373	21.204789	-1.592731	2.151664	2.870973	0.000000	0.297474	0.000000	0.000002	0.000001	0.000000	0.000000
3.108373	16.221284	19.107003	-2.120113	2.532573	3.021995	0.000000	0.380189	0.000000	0.000002	0.000001	0.000000	0.000000
3.657433	18.336998	16.750925	-1.710414	1.783869	3.205469	0.000000	0.287151	0.000000	0.000003	0.000001	0.000000	0.000000
4.206493	19.933404	15.142834	-1.179900	1.162226	3.336385	0.000000	0.189019	0.000000	0.000003	0.000001	0.000000	0.000000
4.755553	20.897740	14.168189	-0.566043	0.623366	3.412419	0.000000	0.087535	0.000000	0.000003	0.000001	0.000000	0.000000
5.304613	21.161890	13.757570	0.087796	0.128907	3.432223	0.000000	-0.015502	0.000000	0.000004	0.000000	0.000000	0.000000
5.603185	21.146696	13.665785	0.018382	0.142560	3.430272	0.000000	-0.006534	0.000000	0.000004	0.000000	0.000000	0.000000
5.936519	21.139698	13.579041	0.002614	0.117673	3.428094	0.000000	-0.006534	0.000000	0.000004	0.000000	0.000000	0.000000
6.269852	21.143212	13.508888	-0.013155	0.092785	3.425915	0.000000	-0.006534	0.000000	0.000004	0.000000	0.000000	0.000000
6.604435	21.157310	13.455158	-0.028982	0.067804	3.423729	0.000000	-0.006534	0.000000	0.000004	0.000000	0.000000	0.000000
6.901758	21.178726	13.421438	-0.098381	0.080672	3.421786	0.000000	0.002406	0.000000	0.000004	0.000000	0.000000	0.000000
7.450818	20.925781	13.593539	0.556340	-0.395967	3.394905	0.000000	-0.100178	0.000000	0.000005	0.000000	0.000000	0.000000
7.999878	19.971298	14.301369	1.171764	-0.900810	3.312104	0.000000	-0.200985	0.000000	0.000005	0.000000	0.000000	0.000000
8.548938	18.382696	15.595347	1.704421	-1.469816	3.174853	0.000000	-0.298228	0.000000	0.000005	-0.000000	0.000000	0.000000
9.097998	16.272185	17.567639	2.116686	-2.143513	2.985586	0.000000	-0.390180	0.000000	0.000005	-0.000000	0.000000	0.000000
9.543958	14.625555	19.325078	1.588769	-1.780629	2.829889	0.000000	-0.308471	0.000000	0.000005	-0.000000	0.000000	0.000000
9.984918	13.427822	20.705503	1.137731	-1.337959	2.711113	0.000000	-0.230758	0.000000	0.000005	0.000000	0.000000	0.000000
10.425878	12.603530	21.667091	0.738672	-0.834412	2.625993	0.000000	-0.155674	0.000000	0.000005	0.000000	0.000000	0.000000
10.866838	12.115020	22.166090	0.373362	-0.292901	2.573560	0.000000	-0.082363	0.000000	0.000005	0.000000	0.000000	0.000000
11.309048	11.939839	22.179277	0.054283	0.207489	2.553197	0.000000	-0.016251	0.000000	0.000005	0.000000	0.000000	0.000000
11.606371	11.914986	22.060052	0.029308	0.193506	2.548365	0.000000	-0.016251	0.000000	0.000005	0.000000	0.000000	0.000000
12.086371	11.906204	21.885122	-0.011012	0.170933	2.540564	0.000000	-0.016251	0.000000	0.000005	0.000000	0.000000	0.000000
12.566371	11.936129	21.731862	-0.051332	0.148359	2.532763	0.000000	-0.016251	0.000000	0.000005	0.000000	0.000000	0.000000
13.046371	12.004761	21.600272	-0.091652	0.125786	2.524962	0.000000	-0.016251	0.000000	0.000006	0.000000	0.000000	0.000000
13.526371	12.112101	21.490353	-0.131972	0.103212	2.517162	0.000000	-0.016251	0.000000	0.000006	0.000000	0.000000	0.000000
14.007621	12.258579	21.401903	-0.172397	0.080580	2.509340	0.000000	-0.016251	0.000000	0.000006	0.000000	0.000000	0.000000
14.304943	12.368519	21.358144	-0.167043	0.014224	2.504508	0.000000	-0.022393	0.000000	0.000006	0.000000	0.000000	0.000000
14.745903	12.674449	21.111822	-0.529370	0.542256	2.510267	0.000000	0.048536	0.000000	0.000006	0.000001	0.000000	0.000000
15.186863	13.309339	20.408959	-0.915882	1.045615	2.547394	0.000000	0.120018	0.000000	0.000007	0.000001	0.000000	0.000000
15.627823	14.302195	19.281537	-1.344238	1.501400	2.616313	0.000000	0.192867	0.000000	0.000007	0.000001	0.000000	0.000000
16.068783	15.698379	17.780852	-1.834009	1.888872	2.717809	0.000000	0.267913	0.000000	0.000007	0.000001	0.000000	0.000000
16.514743	17.585332	15.953681	-2.412328	2.191149	2.854733	0.000000	0.346472	0.000000	0.000008	0.000001	0.000000	0.000000
17.063803	20.008753	13.913414	-1.975306	1.546711	3.021233	0.000000	0.259129	0.000000	0.000009	0.000001	0.000000	0.000000
17.612863	21.872349	12.516530	-1.398758	1.012443	3.138442	0.000000	0.167189	0.000000	0.000009	0.000001	0.000000	0.000000
18.161923	23.044485	11.663532	-0.723409	0.550288	3.204280	0.000000	0.072283	0.000000	0.000009	0.000000	0.000000	0.000000
18.710983	23.442367	11.293663	0.003039	0.127329	3.217581	0.000000	-0.023905	0.000000	0.000010	0.000000	0.000000	0.000000
19.009556	23.480940	11.208097	-0.070986	0.129747	3.212954	0.000000	-0.015498	0.000000	0.000010	0.000000	0.000000	0.000000
19.342889	23.533020	11.131680	-0.085254	0.099506	3.207788	0.000000	-0.015498	0.000000	0.000010	0.000000	0.000000	0.000000
19.676223	23.594612	11.075422	-0.099521	0.069265	3.202622	0.000000	-0.015498	0.000000	0.000010	0.000000	0.000000	0.000000
20.010806	23.666293	11.039092	-0.231098	0.093605	3.197456	0.000000	0.000344	0.000000	0.000010	0.000000	0.000000	0.000000
20.308129	23.807650	10.991508	-0.306532	0.095152	3.197558	0.000000	0.008698	0.000000	0.000010	0.000000	0.000000	0.000000
20.857189	23.733641	11.109347	0.440526	-0.311038	3.176110	0.000000	-0.086709	0.000000	0.000010	-0.000000	0.000000	0.000000
21.406249	22.851573	11.682707	1.156468	-0.739384	3.102623	0.000000	-0.180578	0.000000	0.000010	-0.000000	0.000000	0.000000
21.955309	21.223751	12.752428	1.790723	-1.220393	2.978402	0.000000	-0.271244	0.000000	0.000010	-0.000001	0.000000	0.000000
22.504369	18.965157	14.394704	2.298490	-1.788329	2.805650	0.000000	-0.357099	0.000000	0.000009	-0.000001	0.000000	0.000000
22.950329	17.185237	15.869096	1.706809	-1.503831	2.663694	0.000000	-0.279878	0.000000	0.000009	-0.000001	0.000000	0.000000
23.391289	15.909260	17.044580	1.197803	-1.151765	2.556604	0.000000	-0.206299	0.000000	0.000008	-0.000001	0.000000	0.000000
23.832249	15.056448	17.885188	0.743522	-0.747294	2.481410	0.000000	-0.135071	0.000000	0.000008	-0.000000	0.000000	0.000000
24.273209	14.587839	18.352673	0.323210	-0.308823	2.437257	0.000000	-0.065380	0.000000	0.000008	-0.000000	0.000000	0.000000
24.715418	14.482142	18.425517	-0.046910	0.098449	2.423638	0.000000	-0.002378	0.000000	0.000008	0.000000	0.000000	0.000000
25.012741	14.516154	18.371819	-0.067485	0.082157	2.422931	0.000000	-0.002378	0.000000	0.000008	0.000000	0.000000	0.000000
25.346075	14.568833	18.323137	-0.090553	0.063890	2.422139	0.000000	-0.002378	0.000000	0.000008	0.000000	0.000000	0.000000
25.679408	14.636891	18.286632	-0.113620	0.045624	2.421346	0.000000	-0.002378	0.000000	0.000008	0.000000	0.000000	0.000000
26.013991	14.720371	18.262607	-0.017353	-0.120866	2.420526	0.000000	-0.022014	0.000000	0.000008	-0.000000	0.000000	0.000000
26.311314	14.736697	18.339390	-0.001421	-0.182354	2.413981	0.000000	-0.027934	0.000000	0.000008	-0.000000	0.000000	0.000000
26.752274	14.919524	18.301296	-0.414763	0.268414	2.416776	0.000000	0.040623	0.000000	0.000008	0.000000	0.000000	0.000000
27.193234	15.473833	17.869549	-0.847055	0.706969	2.449875	0.000000	0.109643	0.000000	0.000008	0.000000	0.000000	0.000000
27.634194	16.424947	17.063792	-1.318046	1.113357	2.513656	0.000000	0.179912	0.000000	0.000008	0.000001	0.000000	0.000000
28.075154	17.816322	15.920686	-1.849254	1.469089	2.608843	0.000000	0.252230	0.000000	0.000009	0.000001	0.000000	0.000000
28.521114	19.735699	14.475025	-2.469913	1.758891	2.738126	0.000000	0.327864	0.000000	0.000009	0.000001	0.000000	0.000000
29.070174	22.175241	12.864211	-1.946910	1.192193	2.895474	0.000000	0.244447	0.000000	0.000010	0.000001	0.000000	0.000000
29.619234	23.961088	11.825696	-1.286388	0.710413	3.005761	0.000000	0.156693	0.000000	0.000010	0.000000	0.000000	0.000000
30.168294	24.967096	11.285508	-0.535002	0.279234	3.067031	0.000000	0.066161	0.000000	0.000010	0.000000	0.000000	0.000000
30.717354	25.122205	11.205173	0.254174	-0.132056	3.078198	0.000000	-0.025545	0.000000	0.000010	-0.000000	0.000000	0.000000
31.015927	25.013294	11.274588	0.176233	-0.129709	3.072972	0.000000	-0.017503	0.000000	0.000010	-0.000000	0.000000	0.000000
31.349260	24.900385	11.371082	0.162493	-0.159771	3.067138	0.000000	-0.017503	0.000000	0.000010	-0.000000	0.000000	0.000000
31.682593	24.796637	11.487617	0.148753	-0.189834	3.061303	0.000000	-0.017503	0.000000	0.000010	-0.000000	0.000000	0.000000
32.017177	24.701711	11.624743	0.134961	-0.220009	3.055447	0.000000	-0.017503	0.000000	0.000010	-0.000000	0.000000	0.000000
32.314499	24.625101	11.763543	0.058370	-0.216090	3.050243	0.000000	-0.009534	0.000000	0.000010	-0.000000	0.000000	0.000000
32.863559	24.139123	12.240099	0.821499	-0.656982	3.020121	0.000000	-0.100027	0.000000	0.000009	-0.000000	0.000000	0.000000
33.412619	22.842198	13.223508	1.526601	-1.144669	2.940728	0.000000	-0.188746	0.000000	0.000009	-0.000001	0.000000	0.000000
33.961679	20.825933	14.783818	2.123872	-1.713888	2.813471	0.000000	-0.274117	0.000000	0.000009	-0.000001	0.000000	0.000000
34.510739	18.232747	17.032165	2.571123	-2.405184	2.640609	0.000000	-0.354626	0.000000	0.000008	-0.000001	0.000000	0.000000
34.956699	16.216489	19.043201	1.966239	-2.085441	2.498804	0.000000	-0.281684	0.000000	0.000007	-0.000001	0.000000	0.000000
35.397659	14.713036	20.706215	1.456195	-1.671558	2.389977	0.000000	-0.212379	0.000000	0.000007	-0.000001	0.000000	0.000000
35.838619	13.628474	21.969159	1.012681	-1.181620	2.311149	0.000000	-0.145493	0.000000	0.000006	-0.000001	0.000000	0.000000
36.279579	12.913254	22.774568	0.615434	-0.637920	2.261422	0.000000	-0.080264	0.000000	0.000006	-0.000001	0.000000	0.000000
36.721789	12.534006	23.086102	0.276933	-0.121859	2.240203	0.000000	-0.021442	0.000000	0.000006	-0.000000	0.000000	0.000000
37.019112	12.376922	23.162451	0.251393	-0.134930	2.233827	0.000000	-0.021442	0.000000	0.000006	-0.000000	0.000000	0.000000
37.352445	12.218872	23.257289	0.222759	-0.149583	2.226680	0.000000	-0.021442	0.000000	0.000006	-0.000000	0.000000	0.000000
37.685779	12.079910	23.361895	0.194125	-0.164236	2.219533	0.000000	-0.021442	0.000000	0.000005	-0.000000	0.000000	0.000000
38.020362	11.959625	23.476717	0.165384	-0.178944	2.212359	0.000000	-0.021442	0.000000	0.000005	-0.000000	0.000000	0.000000
38.317684	11.868874	23.587011	0.168948	-0.249854	2.205984	0.000000	-0.026851	0.000000	0.000005	-0.000001	0.000000	0.000000
38.758644	11.871221	23.546115	-0.174291	0.342244	2.208073	0.000000	0.036335	0.000000	0.000005	-0.000000	0.000000	0.000000
39.199604	12.178632	22.987934	-0.525493	0.918769	2.238089	0.000000	0.099934	0.000000	0.000005	-0.000000	0.000000	0.000000
39.640564	12.805150	21.937866	-0.900704	1.453492	2.296375	0.000000	0.164673	0.000000	0.000005	-0.000000	0.000000	0.000000
40.081524	13.779402	20.443687	-1.317064	1.922081	2.383593	0.000000	0.231286	0.000000	0.000005	0.000000	0.000000	0.000000
40.527484	15.163467	18.550814	-1.797424	2.304499	2.502209	0.000000	0.300939	0.000000	0.000005	0.000000	0.000000	0.000000
41.076544	16.929791	16.423742	-1.400530	1.592393	2.646910	0.000000	0.225371	0.000000	0.000005	-0.000000	0.000000	0.000000
41.625604	18.203042	15.012149	-0.904709	0.993709	2.748959	0.000000	0.145805	0.000000	0.000005	-0.000000	0.000000	0.000000
42.174664	18.893284	14.215490	-0.344984	0.465806	2.806546	0.000000	0.063653	0.000000	0.000005	-0.000000	0.000000	0.000000
42.723724	18.951762	13.977021	0.239109	-0.028920	2.818650	0.000000	-0.019628	0.000000	0.000004	-0.000000	0.000000	0.000000
43.022297	18.843420	13.978862	0.173273	-0.013765	2.814989	0.000000	-0.012264	0.000000	0.000004	-0.000000	0.000000	0.000000
43.502297	18.689672	14.008562	0.147035	-0.048109	2.809102	0.000000	-0.012264	0.000000	0.000004	-0.000000	0.000000	0.000000
43.982297	18.561112	14.071231	0.120797	-0.082453	2.803216	0.000000	-0.012264	0.000000	0.000004	-0.000000	0.000000	0.000000
44.462297	18.457741	14.166871	0.094559	-0.116797	2.797329	0.000000	-0.012264	0.000000	0.000004	-0.000000	0.000000	0.000000
44.942297	18.379558	14.295481	0.068322	-0.151141	2.791443	0.000000	-0.012264	0.000000	0.000003	-0.000000	0.000000	0.000000
45.423547	18.326685	14.457346	-0.048785	-0.113944	2.785558	0.000000	0.001537	0.000000	0.000003	-0.000000	0.000000	0.000000
45.720870	18.360530	14.531296	-0.113019	-0.096810	2.786015	0.000000	0.008816	0.000000	0.000003	-0.000000	0.000000	0.000000
46.269930	18.175479	14.918685	0.448056	-0.612904	2.768282	0.000000	-0.073316	0.000000	0.000003	-0.000001	0.000000	0.000000
46.818990	17.388112	15.893311	0.977482	-1.172654	2.705745	0.000000	-0.154148	0.000000	0.000002	-0.000001	0.000000	0.000000
47.368050	16.054045	17.524593	1.437864	-1.815930	2.599512	0.000000	-0.232246	0.000000	0.000002	-0.000001	0.000000	0.000000
47.917110	14.267509	19.928726	1.796682	-2.588550	2.451468	0.000000	-0.306225	0.000000	0.000002	-0.000001	0.000000	0.000000
48.363070	12.877186	22.066251	1.331958	-2.184386	2.330197	0.000000	-0.237922	0.000000	0.000001	-0.000001	0.000000	0.000000
48.804030	11.882708	23.777732	0.931856	-1.682106	2.239744	0.000000	-0.172727	0.000000	0.000001	-0.000001	0.000000	0.000000
49.244990	11.221051	25.010673	0.574328	-1.103292	2.177578	0.000000	-0.109499	0.000000	0.000001	-0.000001	0.000000	0.000000
49.685950	10.861986	25.708976	0.243039	-0.474279	2.142992	0.000000	-0.047518	0.000000	0.000000	-0.000001	0.000000	0.000000
50.128160	10.789237	25.840586	-0.050804	0.112896	2.135603	0.000000	0.008685	0.000000	0.000000	-0.000001	0.000000	0.000000
50.425482	10.827662	25.776918	-0.078432	0.101243	2.138185	0.000000	0.008685	0.000000	-0.000000	-0.000001	0.000000	0.000000
50.758816	10.890275	25.713777	-0.109407	0.088179	2.141081	0.000000	0.008685	0.000000	-0.000000	-0.000001	0.000000	0.000000
51.092149	10.973538	25.659346	-0.140382	0.075115	2.143976	0.000000	0.008685	0.000000	-0.000001	-0.000001	0.000000	0.000000
51.426732	11.077655	25.613988	-0.081604	-0.145791	2.146860	0.000000	-0.008732	0.000000	-0.000001	-0.000001	0.000000	0.000000
51.724055	11.134213	25.704207	-0.081317	-0.220681	2.144264	0.000000	-0.013990	0.000000	-0.000001	-0.000001	0.000000	0.000000
52.165015	11.351292	25.612874	-0.412837	0.427017	2.151684	0.000000	0.047673	0.000000	-0.000001	-0.000001	0.000000	0.000000
52.605975	11.867926	24.956741	-0.763219	1.055285	2.186388	0.000000	0.109880	0.000000	-0.000001	-0.000001	0.000000	0.000000
53.046935	12.707718	23.765663	-1.148470	1.635539	2.248773	0.000000	0.173338	0.000000	-0.000002	-0.000001	0.000000	0.000000
53.487895	13.909036	22.093832	-1.586190	2.141377	2.339549	0.000000	0.238770	0.000000	-0.000002	-0.000001	0.000000	0.000000
53.933855	15.547357	19.992319	-2.100612	2.551120	2.461254	0.000000	0.307321	0.000000	-0.000002	-0.000001	0.000000	0.000000
54.482915	17.656623	17.627617	-1.718243	1.781121	2.609812	0.000000	0.233017	0.000000	-0.000003	-0.000001	0.000000	0.000000
55.031975	19.276466	16.034257	-1.214505	1.137987	2.716376	0.000000	0.154580	0.000000	-0.000003	-0.000001	0.000000	0.000000
55.581035	20.292469	15.098747	-0.624981	0.575910	2.779056	0.000000	0.073401	0.000000	-0.000004	-0.000001	0.000000	0.000000
56.130095	20.632865	14.754453	0.008688	0.054853	2.796741	0.000000	-0.009080	0.000000	-0.000004	-0.000000	0.000000	0.000000
56.428668	20.664200	14.704771	-0.059724	0.072992	2.796212	0.000000	-0.001772	0.000000	-0.000004	-0.000000	0.000000	0.000000
56.762001	20.709411	14.663706	-0.075912	0.050203	2.795621	0.000000	-0.001772	0.000000	-0.000004	-0.000000	0.000000	0.000000
57.095334	20.765416	14.637834	-0.092101	0.027414	2.795030	0.000000	-0.001772	0.000000	-0.000004	-0.000000	0.000000	0.000000
57.429918	20.832483	14.627143	-0.108350	0.004539	2.794438	0.000000	-0.001772	0.000000	-0.000004	-0.000000	0.000000	0.000000
57.727240	20.901206	14.630487	-0.177402	0.022440	2.793911	0.000000	0.005528	0.000000	-0.000005	-0.000000	0.000000	0.000000
58.276300	20.739414	14.886815	0.470328	-0.492045	2.774308	0.000000	-0.076830	0.000000	-0.000005	-0.000000	0.000000	0.000000
58.825360	19.880452	15.723924	1.084836	-1.041577	2.709793	0.000000	-0.157825	0.000000	-0.000005	-0.000000	0.000000	0.000000
59.374420	18.384990	17.201439	1.622717	-1.665298	2.601511	0.000000	-0.236021	0.000000	-0.000005	0.000000	0.000000	0.000000
59.923480	16.358662	19.424600	2.045977	-2.407634	2.451383	0.000000	-0.310031	0.000000	-0.000005	0.000000	0.000000	0.000000
60.369440	14.772639	21.400593	1.523041	-2.004539	2.328410	0.000000	-0.241753	0.000000	-0.000005	0.000000	0.000000	0.000000
60.810400	13.631822	22.956997	1.073895	-1.511611	2.236254	0.000000	-0.176625	0.000000	-0.000005	-0.000000	0.000000	0.000000
61.251360	12.864066	24.046574	0.673812	-0.949906	2.172346	0.000000	-0.113510	0.000000	-0.000005	-0.000000	0.000000	0.000000
61.692320	12.434294	24.619749	0.304513	-0.344982	2.135958	0.000000	-0.051687	0.000000	-0.000005	-0.000000	0.000000	0.000000
62.134530	12.322923	24.649905	-0.020753	0.215134	2.126682	0.000000	0.004332	0.000000	-0.000005	-0.000000	0.000000	0.000000
62.431853	12.342441	24.525729	-0.044891	0.202513	2.127970	0.000000	0.004332	0.000000	-0.000005	-0.000000	0.000000	0.000000
62.765186	12.381389	24.395436	-0.071953	0.188365	2.129414	0.000000	0.004332	0.000000	-0.000005	-0.000000	0.000000	0.000000
63.098520	12.438378	24.274576	-0.099014	0.174216	2.130858	0.000000	0.004332	0.000000	-0.000006	-0.000000	0.000000	0.000000
63.433103	12.513723	24.162748	-0.126177	0.160015	2.132308	0.000000	0.004332	0.000000	-0.000006	-0.000000	0.000000	0.000000
63.730426	12.595931	24.071348	-0.119425	0.088361	2.133596	0.000000	-0.000900	0.000000	-0.000006	-0.000000	0.000000	0.000000
64.171386	12.861639	23.728316	-0.485429	0.686600	2.146738	0.000000	0.060562	0.000000	-0.000006	-0.000001	0.000000	0.000000
64.612346	13.458655	22.869498	-0.873610	1.253599	2.187108	0.000000	0.122714	0.000000	-0.000006	-0.000001	0.000000	0.000000
65.053306	14.414257	21.533969	-1.301705	1.763560	2.255167	0.000000	0.186264	0.000000	-0.000007	-0.000001	0.000000	0.000000
65.494266	15.772102	19.782495	-1.789271	2.193281	2.351690	0.000000	0.251935	0.000000	-0.000007	-0.000001	0.000000	0.000000
65.940226	17.617390	17.669979	-2.363276	2.523964	2.479348	0.000000	0.320877	0.000000	-0.000008	-0.000001	0.000000	0.000000
66.489286	19.982818	15.306700	-1.919364	1.805672	2.635167	0.000000	0.245870	0.000000	-0.000008	-0.000001	0.000000	0.000000
67.038346	21.782992	13.657360	-1.339877	1.215993	2.748542	0.000000	0.166501	0.000000	-0.000009	-0.000001	0.000000	0.000000
67.587406	22.890759	12.604482	-0.665749	0.712927	2.817463	0.000000	0.084179	0.000000	-0.000009	-0.000000	0.000000	0.000000
68.136466	23.227870	12.073072	0.055404	0.260641	2.840706	0.000000	0.000363	0.000000	-0.000009	-0.000000	0.000000	0.000000
68.435038	23.234868	11.906608	-0.018145	0.265346	2.843031	0.000000	0.007786	0.000000	-0.000009	-0.000000	0.000000	0.000000
68.768372	23.251748	11.739699	-0.032496	0.235379	2.845627	0.000000	0.007786	0.000000	-0.000009	-0.000000	0.000000	0.000000
69.101705	23.278195	11.592769	-0.046847	0.205413	2.848222	0.000000	0.007786	0.000000	-0.000009	-0.000000	0.000000	0.000000
69.436288	23.314364	11.465377	-0.061252	0.175333	2.850827	0.000000	0.007786	0.000000	-0.000010	-0.000000	0.000000	0.000000
69.733611	23.354592	11.369064	-0.135078	0.178312	2.853142	0.000000	0.015241	0.000000	-0.000010	-0.000000	0.000000	0.000000
70.282671	23.101826	11.400908	0.592715	-0.236652	2.838331	0.000000	-0.069113	0.000000	-0.000010	0.000000	0.000000	0.000000
