#ParticleID	Turn	x[m]	xp	y[m]	yp	z[m]	dE[GeV]# s	beta_x	beta_y	alpha_x	alpha_y	D_x	D_y	D_px	D_py	orbit_x	orbit_px	orbit_y	orbit_py
0.300000	11.804042	25.057065	-0.010092	-0.026814	2.618264	0.000000	-0.000045	0.000000	-0.000001	0.000002	0.000000	0.000000
0.601250	11.817812	25.076845	-0.035616	-0.038846	2.618250	0.000000	-0.000045	0.000000	-0.000000	0.000002	0.000000	0.000000
0.898573	11.846480	25.103475	-0.031755	-0.112280	2.618236	0.000000	-0.006466	0.000000	0.000000	0.000002	0.000000	0.000000
1.339533	12.026500	24.924012	-0.378037	0.517716	2.631678	0.000000	0.067494	0.000000	0.000001	0.000002	0.000000	0.000000
1.780493	12.518345	24.197246	-0.741590	1.124156	2.677872	0.000000	0.142223	0.000000	0.000002	0.000002	0.000000	0.000000
2.221453	13.344487	22.956247	-1.139025	1.679448	2.757344	0.000000	0.218572	0.000000	0.000002	0.000002	0.000000	0.000000
2.662413	14.542670	21.257477	-1.588498	2.158327	2.870999	0.000000	0.297410	0.000000	0.000003	0.000002	0.000000	0.000000
3.108373	16.188353	19.153320	-2.114830	2.540137	3.021992	0.000000	0.380125	0.000000	0.000004	0.000002	0.000000	0.000000
3.657433	18.298707	16.789985	-1.705994	1.789600	3.205431	0.000000	0.287087	0.000000	0.000005	0.000002	0.000000	0.000000
4.206493	19.890880	15.176415	-1.176655	1.166532	3.336311	0.000000	0.188958	0.000000	0.000006	0.000002	0.000000	0.000000
4.755553	20.852408	14.197681	-0.564203	0.626554	3.412312	0.000000	0.087476	0.000000	0.000007	0.000001	0.000000	0.000000
5.304613	21.115374	13.784068	0.088101	0.131203	3.432084	0.000000	-0.015557	0.000000	0.000008	0.000001	0.000000	0.000000
5.603185	21.099934	13.690864	0.018779	0.144950	3.430116	0.000000	-0.006590	0.000000	0.000008	0.000001	0.000000	0.000000
5.936519	21.092683	13.602517	0.002975	0.120091	3.427919	0.000000	-0.006590	0.000000	0.000008	0.000001	0.000000	0.000000
6.269852	21.095967	13.530743	-0.012828	0.095232	3.425722	0.000000	-0.006590	0.000000	0.000009	0.000001	0.000000	0.000000
6.604435	21.109859	13.475365	-0.028691	0.070280	3.423517	0.000000	-0.006590	0.000000	0.000009	0.000001	0.000000	0.000000
6.901758	21.131111	13.440166	-0.097994	0.083221	3.421557	0.000000	0.002349	0.000000	0.000010	0.000001	0.000000	0.000000
7.450818	20.878619	13.609744	0.555135	-0.393897	3.394647	0.000000	-0.100227	0.000000	0.000010	0.000001	0.000000	0.000000
7.999878	19.926299	14.315496	1.169052	-0.899072	3.311822	0.000000	-0.201025	0.000000	0.000011	0.000001	0.000000	0.000000
8.548938	18.341420	15.607690	1.700393	-1.468286	3.174551	0.000000	-0.298258	0.000000	0.000011	0.000000	0.000000	0.000000
9.097998	16.235928	17.578366	2.111627	-2.142082	2.985270	0.000000	-0.390200	0.000000	0.000011	-0.000000	0.000000	0.000000
9.543958	14.593312	19.334307	1.584795	-1.778713	2.829562	0.000000	-0.308499	0.000000	0.000011	0.000000	0.000000	0.000000
9.984918	13.398677	20.712862	1.134652	-1.335650	2.710771	0.000000	-0.230796	0.000000	0.000011	0.000000	0.000000	0.000000
10.425878	12.576759	21.672279	0.736348	-0.831816	2.625633	0.000000	-0.155721	0.000000	0.000011	0.000001	0.000000	0.000000
10.866838	12.090008	22.168904	0.371685	-0.290135	2.573177	0.000000	-0.082419	0.000000	0.000012	0.000001	0.000000	0.000000
11.309048	11.916051	22.179616	0.053117	0.210302	2.552787	0.000000	-0.016316	0.000000	0.000012	0.000001	0.000000	0.000000
11.606371	11.891905	22.058723	0.028095	0.196304	2.547935	0.000000	-0.016316	0.000000	0.000013	0.000001	0.000000	0.000000
12.086371	11.884324	21.881118	-0.012300	0.173705	2.540103	0.000000	-0.016316	0.000000	0.000013	0.000001	0.000000	0.000000
12.566371	11.915522	21.725209	-0.052696	0.151107	2.532271	0.000000	-0.016316	0.000000	0.000014	0.000001	0.000000	0.000000
13.046371	11.985499	21.590994	-0.093091	0.128508	2.524439	0.000000	-0.016316	0.000000	0.000015	0.000001	0.000000	0.000000
13.526371	12.094257	21.478473	-0.133487	0.105909	2.516606	0.000000	-0.016316	0.000000	0.000015	0.000001	0.000000	0.000000
14.007621	12.242228	21.387440	-0.173987	0.083252	2.508754	0.000000	-0.016316	0.000000	0.000016	0.000001	0.000000	0.000000
14.304943	12.353129	21.342096	-0.168720	0.016925	2.503902	0.000000	-0.022455	0.000000	0.000016	0.000001	0.000000	0.000000
14.745903	12.660402	21.093600	-0.530752	0.544466	2.509629	0.000000	0.048458	0.000000	0.000017	0.000002	0.000000	0.000000
15.186863	13.296405	20.389042	-0.917032	1.047234	2.546718	0.000000	0.119923	0.000000	0.000018	0.000002	0.000000	0.000000
15.627823	14.290193	19.260482	-1.345208	1.502353	2.615590	0.000000	0.192754	0.000000	0.000019	0.000003	0.000000	0.000000
16.068783	15.687170	17.759266	-1.834844	1.889117	2.717031	0.000000	0.267780	0.000000	0.000020	0.000003	0.000000	0.000000
16.514743	17.574822	15.932199	-2.413066	2.190669	2.853890	0.000000	0.346319	0.000000	0.000022	0.000004	0.000000	0.000000
17.063803	19.999361	13.892191	-1.976590	1.546716	3.020312	0.000000	0.259003	0.000000	0.000023	0.000003	0.000000	0.000000
17.612863	21.864627	12.495037	-1.400496	1.012932	3.137460	0.000000	0.167094	0.000000	0.000025	0.000002	0.000000	0.000000
18.161923	23.038867	11.641221	-0.725479	0.551298	3.203255	0.000000	0.072221	0.000000	0.000026	0.000001	0.000000	0.000000
18.710983	23.439138	11.269926	0.000783	0.128930	3.216530	0.000000	-0.023933	0.000000	0.000026	0.000001	0.000000	0.000000
19.009556	23.479050	11.183465	-0.073230	0.131213	3.211893	0.000000	-0.015531	0.000000	0.000027	0.000001	0.000000	0.000000
19.342889	23.532628	11.106096	-0.087503	0.100894	3.206716	0.000000	-0.015531	0.000000	0.000027	0.000001	0.000000	0.000000
19.676223	23.595721	11.048940	-0.101777	0.070575	3.201539	0.000000	-0.015531	0.000000	0.000027	0.000001	0.000000	0.000000
20.010806	23.668913	11.011760	-0.233372	0.094701	3.196362	0.000000	0.000306	0.000000	0.000027	0.000001	0.000000	0.000000
20.308129	23.811625	10.963546	-0.308819	0.096097	3.196453	0.000000	0.008656	0.000000	0.000027	0.000001	0.000000	0.000000
20.857189	23.740043	11.079913	0.438420	-0.309287	3.174992	0.000000	-0.086715	0.000000	0.000028	-0.000000	0.000000	0.000000
21.406249	22.860121	11.650853	1.154691	-0.736700	3.101512	0.000000	-0.180548	0.000000	0.000027	-0.000001	0.000000	0.000000
21.955309	21.234011	12.717032	1.789400	-1.216588	2.977318	0.000000	-0.271178	0.000000	0.000026	-0.000002	0.000000	0.000000
22.504369	18.976575	14.354393	2.297715	-1.783130	2.804612	0.000000	-0.356998	0.000000	0.000025	-0.000003	0.000000	0.000000
22.950329	17.197406	15.824555	1.705890	-1.499584	2.662696	0.000000	-0.279804	0.000000	0.000024	-0.000002	0.000000	0.000000
23.391289	15.922316	16.996785	1.196700	-1.148659	2.555633	0.000000	-0.206251	0.000000	0.000023	-0.000001	0.000000	0.000000
23.832249	15.070577	17.835212	0.742183	-0.745472	2.480455	0.000000	-0.135047	0.000000	0.000023	-0.000001	0.000000	0.000000
24.273209	14.603275	18.301688	0.321575	-0.308366	2.436307	0.000000	-0.065381	0.000000	0.000023	-0.000000	0.000000	0.000000
24.715418	14.499182	18.374744	-0.048880	0.097650	2.422682	0.000000	-0.002400	0.000000	0.000023	0.000000	0.000000	0.000000
25.012741	14.534359	18.321534	-0.069435	0.081315	2.421969	0.000000	-0.002400	0.000000	0.000023	0.000000	0.000000	0.000000
25.346075	14.588331	18.273428	-0.092479	0.063001	2.421169	0.000000	-0.002400	0.000000	0.000023	0.000000	0.000000	0.000000
25.679408	14.657665	18.237532	-0.115524	0.044687	2.420369	0.000000	-0.002400	0.000000	0.000023	0.000000	0.000000	0.000000
26.013991	14.742410	18.214149	-0.019055	-0.121457	2.419541	0.000000	-0.022029	0.000000	0.000023	0.000000	0.000000	0.000000
26.311314	14.759740	18.291298	-0.003043	-0.182868	2.412991	0.000000	-0.027945	0.000000	0.000023	0.000000	0.000000	0.000000
26.752274	14.944251	18.254232	-0.416975	0.266606	2.415776	0.000000	0.040587	0.000000	0.000023	0.000001	0.000000	0.000000
27.193234	15.500806	17.824620	-0.849956	0.703950	2.448853	0.000000	0.109581	0.000000	0.000023	0.000001	0.000000	0.000000
27.634194	16.454832	17.022010	-1.321770	1.109265	2.512599	0.000000	0.179823	0.000000	0.000024	0.000002	0.000000	0.000000
28.075154	17.849916	15.882920	-1.853973	1.464109	2.607741	0.000000	0.252113	0.000000	0.000025	0.000002	0.000000	0.000000
28.521114	19.774029	14.442015	-2.475850	1.753249	2.736964	0.000000	0.327717	0.000000	0.000026	0.000003	0.000000	0.000000
29.070174	22.219575	12.836662	-1.951840	1.187830	2.894241	0.000000	0.244339	0.000000	0.000028	0.000002	0.000000	0.000000
29.619234	24.010119	11.802381	-1.289961	0.707018	3.004479	0.000000	0.156626	0.000000	0.000029	0.000001	0.000000	0.000000
30.168294	25.019186	11.265503	-0.536966	0.276565	3.065724	0.000000	0.066136	0.000000	0.000029	0.000000	0.000000	0.000000
30.717354	25.175500	11.187788	0.253958	-0.134188	3.076888	0.000000	-0.025528	0.000000	0.000029	-0.000001	0.000000	0.000000
31.015927	25.066786	11.258523	0.175915	-0.131945	3.071666	0.000000	-0.017491	0.000000	0.000029	-0.000000	0.000000	0.000000
31.349260	24.954079	11.356527	0.162206	-0.162068	3.065836	0.000000	-0.017491	0.000000	0.000029	-0.000000	0.000000	0.000000
31.682593	24.850511	11.474613	0.148497	-0.192190	3.060006	0.000000	-0.017491	0.000000	0.000029	-0.000000	0.000000	0.000000
32.017177	24.755746	11.613336	0.134736	-0.222426	3.054154	0.000000	-0.017491	0.000000	0.000029	-0.000000	0.000000	0.000000
32.314499	24.679262	11.753589	0.058041	-0.218592	3.048954	0.000000	-0.009526	0.000000	0.000028	-0.000000	0.000000	0.000000
32.863559	24.192657	12.232799	0.822963	-0.659341	3.018848	0.000000	-0.099978	0.000000	0.000028	-0.000001	0.000000	0.000000
33.412619	22.893180	13.218799	1.529755	-1.147054	2.939493	0.000000	-0.188656	0.000000	0.000027	-0.000002	0.000000	0.000000
33.961679	20.872620	14.781819	2.128492	-1.716469	2.812297	0.000000	-0.273988	0.000000	0.000026	-0.000003	0.000000	0.000000
34.510739	18.273700	17.033192	2.576884	-2.408145	2.639517	0.000000	-0.354461	0.000000	0.000024	-0.000004	0.000000	0.000000
34.956699	16.252876	19.046998	1.970752	-2.088665	2.497781	0.000000	-0.281546	0.000000	0.000022	-0.000003	0.000000	0.000000
35.397659	14.745909	20.712917	1.459678	-1.674896	2.389010	0.000000	-0.212267	0.000000	0.000021	-0.000003	0.000000	0.000000
35.838619	13.658670	21.978800	1.015293	-1.184920	2.310227	0.000000	-0.145405	0.000000	0.000020	-0.000002	0.000000	0.000000
36.279579	12.941485	22.787047	0.617294	-0.641032	2.260534	0.000000	-0.080199	0.000000	0.000019	-0.000002	0.000000	0.000000
36.721789	12.560892	23.101198	0.278189	-0.124672	2.239338	0.000000	-0.021397	0.000000	0.000018	-0.000001	0.000000	0.000000
37.019112	12.403050	23.179219	0.252687	-0.137742	2.232977	0.000000	-0.021397	0.000000	0.000018	-0.000001	0.000000	0.000000
37.352445	12.244123	23.275932	0.224095	-0.152396	2.225845	0.000000	-0.021397	0.000000	0.000017	-0.000001	0.000000	0.000000
37.685779	12.104257	23.382413	0.195504	-0.167049	2.218713	0.000000	-0.021397	0.000000	0.000017	-0.000001	0.000000	0.000000
38.020362	11.983033	23.499118	0.166806	-0.181758	2.211554	0.000000	-0.021397	0.000000	0.000016	-0.000001	0.000000	0.000000
38.317684	11.891425	23.611086	0.170461	-0.252721	2.205193	0.000000	-0.026804	0.000000	0.000016	-0.000001	0.000000	0.000000
38.758644	11.892662	23.572429	-0.173277	0.340054	2.207299	0.000000	0.036362	0.000000	0.000016	-0.000001	0.000000	0.000000
39.199604	12.199380	23.015843	-0.524930	0.917356	2.237323	0.000000	0.099942	0.000000	0.000015	-0.000001	0.000000	0.000000
39.640564	12.825592	21.966653	-0.900567	1.452920	2.295607	0.000000	0.164660	0.000000	0.000015	-0.000000	0.000000	0.000000
40.081524	13.799907	20.472597	-1.317347	1.922377	2.382815	0.000000	0.231254	0.000000	0.000015	0.000000	0.000000	0.000000
40.527484	15.184418	18.579073	-1.798142	2.305654	2.501412	0.000000	0.300887	0.000000	0.000015	0.000001	0.000000	0.000000
41.076544	16.951087	16.451150	-1.400436	1.592795	2.646091	0.000000	0.225344	0.000000	0.000016	0.000000	0.000000	0.000000
41.625604	18.223790	15.039513	-0.903809	0.993388	2.748133	0.000000	0.145805	0.000000	0.000016	-0.000000	0.000000	0.000000
42.174664	18.912629	14.243612	-0.343342	0.464737	2.805728	0.000000	0.063680	0.000000	0.000015	-0.000001	0.000000	0.000000
42.723724	18.968947	14.006758	0.241377	-0.030811	2.817854	0.000000	-0.019575	0.000000	0.000015	-0.000001	0.000000	0.000000
43.022297	18.859275	14.009670	0.175501	-0.015535	2.814208	0.000000	-0.012214	0.000000	0.000014	-0.000001	0.000000	0.000000
43.502297	18.703387	14.041034	0.149265	-0.049805	2.808346	0.000000	-0.012214	0.000000	0.000014	-0.000001	0.000000	0.000000
43.982297	18.572686	14.105297	0.123030	-0.084076	2.802484	0.000000	-0.012214	0.000000	0.000013	-0.000001	0.000000	0.000000
44.462297	18.467170	14.202459	0.096794	-0.118346	2.796622	0.000000	-0.012214	0.000000	0.000012	-0.000001	0.000000	0.000000
44.942297	18.386841	14.332521	0.070559	-0.152616	2.790760	0.000000	-0.012214	0.000000	0.000012	-0.000001	0.000000	0.000000
45.423547	18.331814	14.495770	-0.046571	-0.115155	2.784900	0.000000	0.001584	0.000000	0.000011	-0.000001	0.000000	0.000000
45.720870	18.364340	14.570426	-0.110804	-0.097872	2.785371	0.000000	0.008861	0.000000	0.000011	-0.000001	0.000000	0.000000
46.269930	18.176806	14.959640	0.450336	-0.615185	2.767669	0.000000	-0.073251	0.000000	0.000010	-0.000002	0.000000	0.000000
46.818990	17.386973	15.937509	0.979665	-1.176316	2.705173	0.000000	-0.154064	0.000000	0.000009	-0.000002	0.000000	0.000000
47.368050	16.050632	17.573686	1.439796	-1.821233	2.598992	0.000000	-0.232144	0.000000	0.000008	-0.000002	0.000000	0.000000
47.917110	14.262176	19.984711	1.798227	-2.595873	2.451010	0.000000	-0.306107	0.000000	0.000007	-0.000002	0.000000	0.000000
48.363070	12.870502	22.128233	1.333454	-2.190454	2.329789	0.000000	-0.237816	0.000000	0.000006	-0.000002	0.000000	0.000000
48.804030	11.874699	23.844411	0.933372	-1.686648	2.239381	0.000000	-0.172630	0.000000	0.000005	-0.000002	0.000000	0.000000
49.244990	11.211671	25.080606	0.575934	-1.106101	2.177257	0.000000	-0.109411	0.000000	0.000004	-0.000002	0.000000	0.000000
49.685950	10.851124	25.780571	0.244809	-0.475226	2.142708	0.000000	-0.047438	0.000000	0.000003	-0.000002	0.000000	0.000000
50.128160	10.776708	25.912176	-0.048822	0.113678	2.135354	0.000000	0.008759	0.000000	0.000002	-0.000002	0.000000	0.000000
50.425482	10.813962	25.848033	-0.076477	0.102056	2.137958	0.000000	0.008759	0.000000	0.000002	-0.000002	0.000000	0.000000
50.758816	10.875281	25.784339	-0.107482	0.089026	2.140879	0.000000	0.008759	0.000000	0.000001	-0.000002	0.000000	0.000000
51.092149	10.957270	25.729332	-0.138486	0.075995	2.143799	0.000000	0.008759	0.000000	0.000001	-0.000002	0.000000	0.000000
51.426732	11.060129	25.683376	-0.079880	-0.145440	2.146708	0.000000	-0.008657	0.000000	0.000000	-0.000002	0.000000	0.000000
51.724055	11.115673	25.773375	-0.079675	-0.220466	2.144135	0.000000	-0.013915	0.000000	-0.000000	-0.000002	0.000000	0.000000
52.165015	11.331105	25.681045	-0.410732	0.429054	2.151588	0.000000	0.047746	0.000000	-0.000001	-0.000002	0.000000	0.000000
52.605975	11.845643	25.022344	-0.760554	1.059051	2.186324	0.000000	0.109951	0.000000	-0.000002	-0.000002	0.000000	0.000000
53.046935	12.682794	23.827242	-1.145123	1.640863	2.248740	0.000000	0.173407	0.000000	-0.000003	-0.000002	0.000000	0.000000
53.487895	13.880806	22.150115	-1.582010	2.148017	2.339547	0.000000	0.238839	0.000000	-0.000004	-0.000002	0.000000	0.000000
53.933855	15.514952	20.042199	-2.095399	2.558777	2.461283	0.000000	0.307390	0.000000	-0.000005	-0.000002	0.000000	0.000000
54.482915	17.618927	17.670186	-1.713879	1.786858	2.609879	0.000000	0.233085	0.000000	-0.000006	-0.000002	0.000000	0.000000
55.031975	19.234589	16.071388	-1.211299	1.142213	2.716480	0.000000	0.154645	0.000000	-0.000007	-0.000002	0.000000	0.000000
55.581035	20.247814	15.131926	-0.623159	0.578925	2.779196	0.000000	0.073462	0.000000	-0.000008	-0.000002	0.000000	0.000000
56.130095	20.587034	14.784883	0.008997	0.056873	2.796913	0.000000	-0.009024	0.000000	-0.000008	-0.000001	0.000000	0.000000
56.428668	20.618123	14.733936	-0.059329	0.075127	2.796401	0.000000	-0.001716	0.000000	-0.000009	-0.000001	0.000000	0.000000
56.762001	20.663083	14.691435	-0.075553	0.052376	2.795829	0.000000	-0.001716	0.000000	-0.000009	-0.000001	0.000000	0.000000
57.095334	20.718860	14.664101	-0.091777	0.029625	2.795258	0.000000	-0.001716	0.000000	-0.000010	-0.000001	0.000000	0.000000
57.429918	20.785722	14.651918	-0.108062	0.006789	2.794684	0.000000	-0.001716	0.000000	-0.000010	-0.000001	0.000000	0.000000
57.727240	20.854283	14.653915	-0.177026	0.024786	2.794175	0.000000	0.005586	0.000000	-0.000010	-0.000001	0.000000	0.000000
58.276300	20.692943	14.908022	0.469134	-0.490323	2.774601	0.000000	-0.076781	0.000000	-0.000011	-0.000001	0.000000	0.000000
58.825360	19.836120	15.743525	1.082156	-1.040356	2.710111	0.000000	-0.157786	0.000000	-0.000012	-0.000001	0.000000	0.000000
59.374420	18.344335	17.219933	1.618740	-1.664492	2.601847	0.000000	-0.235993	0.000000	-0.000012	-0.000000	0.000000	0.000000
59.923480	16.322961	19.442410	2.040985	-2.407186	2.451731	0.000000	-0.310014	0.000000	-0.000012	0.000000	0.000000	0.000000
60.369440	14.740900	21.417715	1.519117	-2.003449	2.328769	0.000000	-0.241726	0.000000	-0.000012	-0.000000	0.000000	0.000000
60.810400	13.603144	22.972894	1.070851	-1.509935	2.236626	0.000000	-0.176590	0.000000	-0.000012	-0.000000	0.000000	0.000000
61.251360	12.837737	24.060761	0.671510	-0.947720	2.172736	0.000000	-0.113464	0.000000	-0.000012	-0.000001	0.000000	0.000000
61.692320	12.409708	24.631819	0.302848	-0.342385	2.136371	0.000000	-0.051631	0.000000	-0.000013	-0.000001	0.000000	0.000000
62.134530	12.299557	24.659539	-0.021914	0.217995	2.127122	0.000000	0.004397	0.000000	-0.000013	-0.000001	0.000000	0.000000
62.431853	12.319779	24.533665	-0.046099	0.205365	2.128430	0.000000	0.004397	0.000000	-0.000013	-0.000001	0.000000	0.000000
62.765186	12.359550	24.401475	-0.073214	0.191205	2.129896	0.000000	0.004397	0.000000	-0.000014	-0.000001	0.000000	0.000000
63.098520	12.417397	24.278725	-0.100328	0.177045	2.131362	0.000000	0.004397	0.000000	-0.000014	-0.000001	0.000000	0.000000
63.433103	12.493639	24.165007	-0.127544	0.162832	2.132834	0.000000	0.004397	0.000000	-0.000015	-0.000001	0.000000	0.000000
63.730426	12.576673	24.071935	-0.120883	0.091162	2.134142	0.000000	-0.000837	0.000000	-0.000015	-0.000001	0.000000	0.000000
64.171386	12.843486	23.726449	-0.486486	0.689343	2.147315	0.000000	0.060640	0.000000	-0.000016	-0.000002	0.000000	0.000000
64.612346	13.441277	22.865283	-0.874316	1.256160	2.187724	0.000000	0.122807	0.000000	-0.000017	-0.000002	0.000000	0.000000
65.053306	14.397358	21.527619	-1.302091	1.765823	2.255828	0.000000	0.186373	0.000000	-0.000018	-0.000003	0.000000	0.000000
65.494266	15.755408	19.774321	-1.789354	2.195142	2.352404	0.000000	0.252062	0.000000	-0.000019	-0.000003	0.000000	0.000000
65.940226	17.600636	17.660359	-2.363059	2.525334	2.480123	0.000000	0.321024	0.000000	-0.000020	-0.000004	0.000000	0.000000
66.489286	19.966213	15.295574	-1.919852	1.807060	2.636017	0.000000	0.245990	0.000000	-0.000022	-0.000003	0.000000	0.000000
67.038346	21.767297	13.644655	-1.341037	1.217499	2.749452	0.000000	0.166593	0.000000	-0.000024	-0.000002	0.000000	0.000000
67.587406	22.876669	12.590010	-0.667497	0.714658	2.818415	0.000000	0.084240	0.000000	-0.000025	-0.000001	0.000000	0.000000
68.136466	23.215968	12.056520	0.053191	0.262721	2.841684	0.000000	0.000394	0.000000	-0.000025	-0.000001	0.000000	0.000000
68.435038	23.224275	11.888857	-0.020342	0.267320	2.844020	0.000000	0.007820	0.000000	-0.000025	-0.000001	0.000000	0.000000
68.768372	23.242623	11.720657	-0.034701	0.237279	2.846626	0.000000	0.007820	0.000000	-0.000025	-0.000001	0.000000	0.000000
69.101705	23.270544	11.572484	-0.049060	0.207238	2.849233	0.000000	0.007820	0.000000	-0.000026	-0.000001	0.000000	0.000000
69.436288	23.308195	11.443896	-0.063473	0.177085	2.851850	0.000000	0.007820	0.000000	-0.000026	-0.000001	0.000000	0.000000
69.733611	23.349747	11.346561	-0.137302	0.179942	2.854175	0.000000	0.015279	0.000000	-0.000026	-0.000001	0.000000	0.000000
70.282671	23.099490	11.376263	0.590396	-0.234358	2.839376	0.000000	-0.069109	0.000000	-0.000026	0.000000	0.000000	0.000000
