#ParticleID	Turn	x[m]	xp	y[m]	yp	z[m]	dE[GeV]# s	beta_x	beta_y	alpha_x	alpha_y	D_x	D_y	D_px	D_py	orbit_x	orbit_px	orbit_y	orbit_py
0.300000	11.819336	24.996119	-0.011658	-0.027497	2.618058	0.000000	0.000034	0.000000	0.000000	0.000001	0.000000	0.000000
0.601250	11.834039	25.016319	-0.037149	-0.039558	2.618068	0.000000	0.000034	0.000000	0.000000	0.000001	0.000000	0.000000
0.898573	11.863610	25.043382	-0.033215	-0.112875	2.618078	0.000000	-0.006386	0.000000	0.000001	0.000001	0.000000	0.000000
1.339533	12.045100	24.865142	-0.379925	0.515545	2.631554	0.000000	0.067570	0.000000	0.000001	0.000001	0.000000	0.000000
1.780493	12.538830	24.140951	-0.743993	1.120509	2.677781	0.000000	0.142296	0.000000	0.000001	0.000001	0.000000	0.000000
2.221453	13.367357	22.903760	-1.142051	1.674490	2.757285	0.000000	0.218643	0.000000	0.000002	0.000001	0.000000	0.000000
2.662413	14.568533	21.209860	-1.592286	2.152284	2.870972	0.000000	0.297480	0.000000	0.000002	0.000001	0.000000	0.000000
3.108373	16.218002	19.111479	-2.119562	2.533282	3.021996	0.000000	0.380194	0.000000	0.000002	0.000001	0.000000	0.000000
3.657433	18.333153	16.754722	-1.709946	1.784403	3.205474	0.000000	0.287156	0.000000	0.000003	0.000001	0.000000	0.000000
4.206493	19.929106	15.146122	-1.179548	1.162624	3.336392	0.000000	0.189024	0.000000	0.000003	0.000001	0.000000	0.000000
4.755553	20.893131	14.171102	-0.565833	0.623656	3.412429	0.000000	0.087540	0.000000	0.000003	0.000001	0.000000	0.000000
5.304613	21.157135	13.760214	0.087850	0.129109	3.432236	0.000000	-0.015497	0.000000	0.000004	0.000000	0.000000	0.000000
5.603185	21.141903	13.668304	0.018445	0.142772	3.430286	0.000000	-0.006530	0.000000	0.000004	0.000000	0.000000	0.000000
5.936519	21.134863	13.581417	0.002673	0.117887	3.428109	0.000000	-0.006530	0.000000	0.000004	0.000000	0.000000	0.000000
6.269852	21.138338	13.511121	-0.013099	0.093003	3.425932	0.000000	-0.006530	0.000000	0.000004	0.000000	0.000000	0.000000
6.604435	21.152400	13.457244	-0.028930	0.068025	3.423747	0.000000	-0.006530	0.000000	0.000004	0.000000	0.000000	0.000000
6.901758	21.173786	13.423392	-0.098319	0.080901	3.421806	0.000000	0.002410	0.000000	0.000004	0.000000	0.000000	0.000000
7.450818	20.920864	13.595271	0.556237	-0.395790	3.394927	0.000000	-0.100174	0.000000	0.000005	0.000000	0.000000	0.000000
7.999878	19.966583	14.302928	1.171502	-0.900671	3.312128	0.000000	-0.200982	0.000000	0.000005	0.000000	0.000000	0.000000
8.548938	18.378348	15.596769	1.704019	-1.469705	3.174879	0.000000	-0.298225	0.000000	0.000005	0.000000	0.000000	0.000000
9.097998	16.268343	17.568952	2.116172	-2.143423	2.985613	0.000000	-0.390178	0.000000	0.000005	-0.000000	0.000000	0.000000
9.543958	14.622119	19.326286	1.588368	-1.780486	2.829916	0.000000	-0.308468	0.000000	0.000005	-0.000000	0.000000	0.000000
9.984918	13.424697	20.706565	1.137424	-1.337771	2.711141	0.000000	-0.230755	0.000000	0.000005	0.000000	0.000000	0.000000
10.425878	12.600640	21.667971	0.738445	-0.834188	2.626023	0.000000	-0.155671	0.000000	0.000005	0.000000	0.000000	0.000000
10.866838	12.112300	22.166760	0.373204	-0.292651	2.573592	0.000000	-0.082359	0.000000	0.000005	0.000000	0.000000	0.000000
11.309048	11.937230	22.179718	0.054180	0.207754	2.553231	0.000000	-0.016246	0.000000	0.000005	0.000000	0.000000	0.000000
11.606371	11.912439	22.060336	0.029200	0.193770	2.548401	0.000000	-0.016246	0.000000	0.000005	0.000000	0.000000	0.000000
12.086371	11.903765	21.885153	-0.011128	0.171194	2.540602	0.000000	-0.016246	0.000000	0.000006	0.000000	0.000000	0.000000
12.566371	11.933806	21.731643	-0.051457	0.148619	2.532804	0.000000	-0.016246	0.000000	0.000006	0.000000	0.000000	0.000000
13.046371	12.002562	21.599805	-0.091785	0.126043	2.525006	0.000000	-0.016246	0.000000	0.000006	0.000000	0.000000	0.000000
13.526371	12.110033	21.489639	-0.132113	0.103468	2.517207	0.000000	-0.016246	0.000000	0.000006	0.000000	0.000000	0.000000
14.007621	12.256650	21.400944	-0.172547	0.080834	2.509389	0.000000	-0.016246	0.000000	0.000006	0.000000	0.000000	0.000000
14.304943	12.366682	21.357034	-0.167202	0.014480	2.504558	0.000000	-0.022388	0.000000	0.000007	0.000000	0.000000	0.000000
14.745903	12.672735	21.110501	-0.529492	0.542476	2.510319	0.000000	0.048543	0.000000	0.000007	0.000001	0.000000	0.000000
15.186863	13.307719	20.407464	-0.915974	1.045790	2.547450	0.000000	0.120026	0.000000	0.000007	0.000001	0.000000	0.000000
15.627823	14.300644	19.279911	-1.344303	1.501521	2.616373	0.000000	0.192877	0.000000	0.000008	0.000001	0.000000	0.000000
16.068783	15.696874	17.779145	-1.834050	1.888934	2.717873	0.000000	0.267924	0.000000	0.000008	0.000001	0.000000	0.000000
16.514743	17.583854	15.951946	-2.412347	2.191149	2.854802	0.000000	0.346485	0.000000	0.000009	0.000001	0.000000	0.000000
17.063803	20.007332	13.911661	-1.975392	1.546746	3.021308	0.000000	0.259139	0.000000	0.000009	0.000001	0.000000	0.000000
17.612863	21.871056	12.514719	-1.398905	1.012514	3.138522	0.000000	0.167196	0.000000	0.000010	0.000001	0.000000	0.000000
18.161923	23.043382	11.661620	-0.723606	0.550402	3.204364	0.000000	0.072288	0.000000	0.000010	0.000000	0.000000	0.000000
18.710983	23.441502	11.291599	0.002805	0.127493	3.217667	0.000000	-0.023902	0.000000	0.000010	0.000000	0.000000	0.000000
19.009556	23.480214	11.205941	-0.071218	0.129900	3.213040	0.000000	-0.015496	0.000000	0.000010	0.000000	0.000000	0.000000
19.342889	23.532449	11.129424	-0.085487	0.099652	3.207875	0.000000	-0.015496	0.000000	0.000011	0.000000	0.000000	0.000000
19.676223	23.594196	11.073072	-0.099755	0.069403	3.202710	0.000000	-0.015496	0.000000	0.000011	0.000000	0.000000	0.000000
20.010806	23.666034	11.036651	-0.231332	0.093724	3.197545	0.000000	0.000347	0.000000	0.000011	0.000000	0.000000	0.000000
20.308129	23.807530	10.988999	-0.306766	0.095258	3.197648	0.000000	0.008701	0.000000	0.000011	0.000000	0.000000	0.000000
20.857189	23.733779	11.106683	0.440293	-0.310860	3.176201	0.000000	-0.086709	0.000000	0.000011	-0.000000	0.000000	0.000000
21.406249	22.851959	11.679801	1.156253	-0.739119	3.102714	0.000000	-0.180581	0.000000	0.000011	-0.000000	0.000000	0.000000
21.955309	21.224358	12.749177	1.790540	-1.220025	2.978490	0.000000	-0.271249	0.000000	0.000010	-0.000001	0.000000	0.000000
22.504369	18.965940	14.390978	2.298353	-1.787830	2.805734	0.000000	-0.357107	0.000000	0.000010	-0.000001	0.000000	0.000000
22.950329	17.186143	15.864961	1.706669	-1.503417	2.663775	0.000000	-0.279884	0.000000	0.000009	-0.000001	0.000000	0.000000
23.391289	15.910292	17.040127	1.197654	-1.151456	2.556683	0.000000	-0.206304	0.000000	0.000009	-0.000001	0.000000	0.000000
23.832249	15.057619	17.880514	0.743357	-0.747105	2.481488	0.000000	-0.135073	0.000000	0.000009	-0.000000	0.000000	0.000000
24.273209	14.589165	18.347887	0.323022	-0.308761	2.437334	0.000000	-0.065380	0.000000	0.000009	-0.000000	0.000000	0.000000
24.715418	14.483647	18.420735	-0.047127	0.098393	2.423716	0.000000	-0.002376	0.000000	0.000009	0.000000	0.000000	0.000000
25.012741	14.517788	18.367071	-0.067701	0.082096	2.423009	0.000000	-0.002376	0.000000	0.000009	0.000000	0.000000	0.000000
25.346075	14.570610	18.318430	-0.090766	0.063826	2.422217	0.000000	-0.002376	0.000000	0.000009	0.000000	0.000000	0.000000
25.679408	14.638810	18.281970	-0.113832	0.045555	2.421425	0.000000	-0.002376	0.000000	0.000009	0.000000	0.000000	0.000000
26.013991	14.722430	18.257992	-0.017546	-0.120902	2.420606	0.000000	-0.022013	0.000000	0.000009	-0.000000	0.000000	0.000000
26.311314	14.738869	18.334799	-0.001606	-0.182383	2.414061	0.000000	-0.027933	0.000000	0.000009	-0.000000	0.000000	0.000000
26.752274	14.921884	18.296786	-0.415004	0.268261	2.416857	0.000000	0.040626	0.000000	0.000009	0.000000	0.000000	0.000000
27.193234	15.476434	17.865225	-0.847363	0.706699	2.449958	0.000000	0.109648	0.000000	0.000009	0.000000	0.000000	0.000000
27.634194	16.427855	17.059753	-1.318435	1.112983	2.513741	0.000000	0.179919	0.000000	0.000009	0.000001	0.000000	0.000000
28.075154	17.819616	15.917017	-1.849743	1.468627	2.608932	0.000000	0.252239	0.000000	0.000010	0.000001	0.000000	0.000000
28.521114	19.739482	14.471800	-2.470524	1.758363	2.738220	0.000000	0.327876	0.000000	0.000010	0.000001	0.000000	0.000000
29.070174	22.179647	12.861495	-1.947425	1.191788	2.895573	0.000000	0.244455	0.000000	0.000010	0.000001	0.000000	0.000000
29.619234	23.965989	11.823372	-1.286770	0.710101	3.005864	0.000000	0.156699	0.000000	0.000011	0.000000	0.000000	0.000000
30.168294	24.972329	11.283486	-0.535223	0.278994	3.067136	0.000000	0.066163	0.000000	0.000011	0.000000	0.000000	0.000000
30.717354	25.127586	11.203383	0.254129	-0.132242	3.078303	0.000000	-0.025546	0.000000	0.000011	-0.000000	0.000000	0.000000
31.015927	25.018709	11.272913	0.176177	-0.129905	3.073077	0.000000	-0.017504	0.000000	0.000011	-0.000000	0.000000	0.000000
31.349260	24.905836	11.369539	0.162440	-0.159973	3.067242	0.000000	-0.017504	0.000000	0.000011	-0.000000	0.000000	0.000000
31.682593	24.802122	11.486211	0.148703	-0.190041	3.061408	0.000000	-0.017504	0.000000	0.000011	-0.000000	0.000000	0.000000
32.017177	24.707228	11.623478	0.134915	-0.220223	3.055551	0.000000	-0.017504	0.000000	0.000011	-0.000000	0.000000	0.000000
32.314499	24.630644	11.762407	0.058312	-0.216312	3.050347	0.000000	-0.009535	0.000000	0.000011	-0.000000	0.000000	0.000000
32.863559	24.144628	12.239195	0.821626	-0.657184	3.020224	0.000000	-0.100031	0.000000	0.000010	-0.000001	0.000000	0.000000
33.412619	22.847465	13.222823	1.526904	-1.144866	2.940827	0.000000	-0.188753	0.000000	0.000010	-0.000001	0.000000	0.000000
33.961679	20.830781	14.783352	2.124329	-1.714094	2.813566	0.000000	-0.274128	0.000000	0.000009	-0.000001	0.000000	0.000000
34.510739	18.237024	17.031937	2.571702	-2.405413	2.640696	0.000000	-0.354640	0.000000	0.000009	-0.000001	0.000000	0.000000
34.956699	16.220308	19.043192	1.966689	-2.085701	2.498887	0.000000	-0.281696	0.000000	0.000008	-0.000001	0.000000	0.000000
35.397659	14.716506	20.706446	1.456540	-1.671838	2.390055	0.000000	-0.212389	0.000000	0.000008	-0.000001	0.000000	0.000000
35.838619	13.631681	21.969640	1.012935	-1.181907	2.311223	0.000000	-0.145500	0.000000	0.000007	-0.000001	0.000000	0.000000
36.279579	12.916272	22.775301	0.615609	-0.638200	2.261493	0.000000	-0.080269	0.000000	0.000007	-0.000001	0.000000	0.000000
36.721789	12.536901	23.087075	0.277045	-0.122122	2.240272	0.000000	-0.021446	0.000000	0.000007	-0.000001	0.000000	0.000000
37.019112	12.379750	23.163581	0.251509	-0.135193	2.233895	0.000000	-0.021446	0.000000	0.000006	-0.000001	0.000000	0.000000
37.352445	12.221621	23.258594	0.222880	-0.149846	2.226747	0.000000	-0.021446	0.000000	0.000006	-0.000001	0.000000	0.000000
37.685779	12.082577	23.363376	0.194251	-0.164500	2.219599	0.000000	-0.021446	0.000000	0.000006	-0.000001	0.000000	0.000000
38.020362	11.962206	23.478375	0.165515	-0.179208	2.212423	0.000000	-0.021446	0.000000	0.000006	-0.000001	0.000000	0.000000
38.317684	11.871376	23.588826	0.169089	-0.250122	2.206047	0.000000	-0.026855	0.000000	0.000006	-0.000001	0.000000	0.000000
38.758644	11.873624	23.548145	-0.174206	0.342027	2.208135	0.000000	0.036332	0.000000	0.000006	-0.000000	0.000000	0.000000
39.199604	12.180982	22.990129	-0.525459	0.918614	2.238150	0.000000	0.099934	0.000000	0.000005	-0.000000	0.000000	0.000000
39.640564	12.807493	21.940168	-0.900720	1.453405	2.296435	0.000000	0.164673	0.000000	0.000005	-0.000000	0.000000	0.000000
40.081524	13.781780	20.446034	-1.317131	1.922067	2.383654	0.000000	0.231289	0.000000	0.000005	0.000000	0.000000	0.000000
40.527484	15.165929	18.553139	-1.797545	2.304559	2.502272	0.000000	0.300943	0.000000	0.000005	0.000000	0.000000	0.000000
41.076544	16.932337	16.426034	-1.400559	1.592394	2.646974	0.000000	0.225373	0.000000	0.000005	-0.000000	0.000000	0.000000
41.625604	18.205568	15.014471	-0.904644	0.993653	2.749024	0.000000	0.145805	0.000000	0.000005	-0.000000	0.000000	0.000000
42.174664	18.895689	14.217908	-0.344829	0.465687	2.806611	0.000000	0.063651	0.000000	0.000005	-0.000000	0.000000	0.000000
42.723724	18.953952	13.979607	0.239342	-0.029109	2.818713	0.000000	-0.019633	0.000000	0.000005	-0.000001	0.000000	0.000000
43.022297	18.845474	13.981556	0.173501	-0.013944	2.815050	0.000000	-0.012268	0.000000	0.000005	-0.000001	0.000000	0.000000
43.502297	18.691506	14.011424	0.147264	-0.048281	2.809161	0.000000	-0.012268	0.000000	0.000005	-0.000001	0.000000	0.000000
43.982297	18.562727	14.074256	0.121027	-0.082619	2.803273	0.000000	-0.012268	0.000000	0.000004	-0.000001	0.000000	0.000000
44.462297	18.459134	14.170052	0.094790	-0.116956	2.797384	0.000000	-0.012268	0.000000	0.000004	-0.000001	0.000000	0.000000
44.942297	18.380730	14.298812	0.068553	-0.151294	2.791496	0.000000	-0.012268	0.000000	0.000004	-0.000001	0.000000	0.000000
45.423547	18.327634	14.460822	-0.048558	-0.114073	2.785609	0.000000	0.001533	0.000000	0.000004	-0.000000	0.000000	0.000000
45.720870	18.361343	14.534848	-0.112792	-0.096926	2.786065	0.000000	0.008813	0.000000	0.000003	-0.000000	0.000000	0.000000
46.269930	18.176030	14.922424	0.448304	-0.613131	2.768330	0.000000	-0.073322	0.000000	0.000003	-0.000001	0.000000	0.000000
46.818990	17.388387	15.897367	0.977733	-1.173009	2.705789	0.000000	-0.154155	0.000000	0.000003	-0.000001	0.000000	0.000000
47.368050	16.054050	17.529121	1.438101	-1.816438	2.599552	0.000000	-0.232254	0.000000	0.000002	-0.000001	0.000000	0.000000
47.917110	14.267270	19.933911	1.796888	-2.589247	2.451503	0.000000	-0.306234	0.000000	0.000002	-0.000001	0.000000	0.000000
48.363070	12.876771	22.072009	1.332149	-2.184969	2.330228	0.000000	-0.237931	0.000000	0.000002	-0.000001	0.000000	0.000000
48.804030	11.882127	23.783944	0.932042	-1.682548	2.239771	0.000000	-0.172735	0.000000	0.000001	-0.000001	0.000000	0.000000
49.244990	11.220306	25.017205	0.574516	-1.103573	2.177602	0.000000	-0.109506	0.000000	0.000001	-0.000001	0.000000	0.000000
49.685950	10.861071	25.715679	0.243239	-0.474386	2.143013	0.000000	-0.047524	0.000000	0.000001	-0.000001	0.000000	0.000000
50.128160	10.788136	25.847306	-0.050586	0.112950	2.135622	0.000000	0.008679	0.000000	0.000000	-0.000001	0.000000	0.000000
50.425482	10.826432	25.783604	-0.078216	0.101301	2.138202	0.000000	0.008679	0.000000	0.000000	-0.000001	0.000000	0.000000
50.758816	10.888902	25.720424	-0.109194	0.088240	2.141095	0.000000	0.008679	0.000000	-0.000000	-0.000001	0.000000	0.000000
51.092149	10.972024	25.665951	-0.140171	0.075179	2.143988	0.000000	0.008679	0.000000	-0.000000	-0.000001	0.000000	0.000000
51.426732	11.076000	25.620550	-0.081408	-0.145777	2.146871	0.000000	-0.008738	0.000000	-0.000001	-0.000001	0.000000	0.000000
51.724055	11.132443	25.710759	-0.081130	-0.220680	2.144273	0.000000	-0.013996	0.000000	-0.000001	-0.000001	0.000000	0.000000
52.165015	11.349338	25.619348	-0.412605	0.427191	2.151690	0.000000	0.047667	0.000000	-0.000001	-0.000001	0.000000	0.000000
52.605975	11.865743	24.962989	-0.762931	1.055624	2.186392	0.000000	0.109874	0.000000	-0.000001	-0.000001	0.000000	0.000000
53.046935	12.705251	23.771545	-1.148112	1.636027	2.248774	0.000000	0.173332	0.000000	-0.000002	-0.000001	0.000000	0.000000
53.487895	13.906218	22.099225	-1.585748	2.141993	2.339547	0.000000	0.238764	0.000000	-0.000002	-0.000001	0.000000	0.000000
53.933855	15.544098	19.997115	-2.100063	2.551835	2.461249	0.000000	0.307315	0.000000	-0.000002	-0.000001	0.000000	0.000000
54.482915	17.652803	17.631732	-1.717777	1.781654	2.609804	0.000000	0.233011	0.000000	-0.000003	-0.000001	0.000000	0.000000
55.031975	19.272195	16.037868	-1.214155	1.138376	2.716365	0.000000	0.154574	0.000000	-0.000003	-0.000001	0.000000	0.000000
55.581035	20.287888	15.101998	-0.624771	0.576182	2.779043	0.000000	0.073396	0.000000	-0.000004	-0.000001	0.000000	0.000000
56.130095	20.628138	14.757460	0.008743	0.055027	2.796724	0.000000	-0.009084	0.000000	-0.000004	-0.000000	0.000000	0.000000
56.428668	20.659433	14.707668	-0.059659	0.073178	2.796194	0.000000	-0.001777	0.000000	-0.000004	-0.000000	0.000000	0.000000
56.762001	20.704604	14.666478	-0.075852	0.050393	2.795602	0.000000	-0.001777	0.000000	-0.000004	-0.000000	0.000000	0.000000
57.095334	20.760569	14.640478	-0.092044	0.027608	2.795010	0.000000	-0.001777	0.000000	-0.000004	-0.000000	0.000000	0.000000
57.429918	20.827599	14.629656	-0.108297	0.004737	2.794416	0.000000	-0.001777	0.000000	-0.000005	-0.000000	0.000000	0.000000
57.727240	20.896292	14.632882	-0.177340	0.022648	2.793887	0.000000	0.005523	0.000000	-0.000005	-0.000000	0.000000	0.000000
58.276300	20.734522	14.889019	0.470225	-0.491902	2.774282	0.000000	-0.076834	0.000000	-0.000005	-0.000000	0.000000	0.000000
58.825360	19.875759	15.726002	1.084576	-1.041489	2.709765	0.000000	-0.157828	0.000000	-0.000005	-0.000000	0.000000	0.000000
59.374420	18.380662	17.203447	1.622317	-1.665258	2.601482	0.000000	-0.236023	0.000000	-0.000005	0.000000	0.000000	0.000000
59.923480	16.354837	19.426591	2.045467	-2.407641	2.451352	0.000000	-0.310032	0.000000	-0.000005	0.000000	0.000000	0.000000
60.369440	14.769218	21.402560	1.522642	-2.004478	2.328380	0.000000	-0.241755	0.000000	-0.000005	0.000000	0.000000	0.000000
60.810400	13.628711	22.958882	1.073590	-1.511487	2.236222	0.000000	-0.176628	0.000000	-0.000005	-0.000000	0.000000	0.000000
61.251360	12.861188	24.048324	0.673586	-0.949725	2.172313	0.000000	-0.113513	0.000000	-0.000005	-0.000000	0.000000	0.000000
61.692320	12.431584	24.621316	0.304356	-0.344750	2.135923	0.000000	-0.051691	0.000000	-0.000005	-0.000000	0.000000	0.000000
62.134530	12.320324	24.651249	-0.020855	0.215401	2.126645	0.000000	0.004327	0.000000	-0.000005	-0.000000	0.000000	0.000000
62.431853	12.339904	24.526914	-0.044998	0.202780	2.127931	0.000000	0.004327	0.000000	-0.000006	-0.000000	0.000000	0.000000
62.765186	12.378925	24.396444	-0.072065	0.188631	2.129374	0.000000	0.004327	0.000000	-0.000006	-0.000000	0.000000	0.000000
63.098520	12.435991	24.275407	-0.099133	0.174481	2.130816	0.000000	0.004327	0.000000	-0.000006	-0.000000	0.000000	0.000000
63.433103	12.511417	24.163402	-0.126301	0.160279	2.132264	0.000000	0.004327	0.000000	-0.000006	-0.000000	0.000000	0.000000
63.730426	12.593700	24.071845	-0.119559	0.088623	2.133551	0.000000	-0.000906	0.000000	-0.000006	-0.000000	0.000000	0.000000
64.171386	12.859506	23.728578	-0.485516	0.686868	2.146690	0.000000	0.060555	0.000000	-0.000006	-0.000001	0.000000	0.000000
64.612346	13.456580	22.869525	-0.873654	1.253861	2.187057	0.000000	0.122706	0.000000	-0.000007	-0.000001	0.000000	0.000000
65.053306	14.412202	21.533772	-1.301707	1.763805	2.255113	0.000000	0.186255	0.000000	-0.000007	-0.000001	0.000000	0.000000
65.494266	15.770031	19.782095	-1.789232	2.193497	2.351631	0.000000	0.251924	0.000000	-0.000008	-0.000001	0.000000	0.000000
65.940226	17.615265	17.669403	-2.363193	2.524141	2.479284	0.000000	0.320865	0.000000	-0.000008	-0.000001	0.000000	0.000000
66.489286	19.980648	15.305936	-1.919365	1.805838	2.635097	0.000000	0.245860	0.000000	-0.000009	-0.000001	0.000000	0.000000
67.038346	21.780870	13.656415	-1.339962	1.216160	2.748467	0.000000	0.166493	0.000000	-0.000009	-0.000001	0.000000	0.000000
67.587406	22.888772	12.603347	-0.665911	0.713107	2.817384	0.000000	0.084173	0.000000	-0.000010	-0.000000	0.000000	0.000000
68.136466	23.226098	12.071726	0.055177	0.260847	2.840626	0.000000	0.000361	0.000000	-0.000010	-0.000000	0.000000	0.000000
68.435038	23.233229	11.905141	-0.018369	0.265544	2.842950	0.000000	0.007783	0.000000	-0.000010	-0.000000	0.000000	0.000000
68.768372	23.250259	11.738104	-0.032721	0.235570	2.845544	0.000000	0.007783	0.000000	-0.000010	-0.000000	0.000000	0.000000
69.101705	23.276858	11.591048	-0.047074	0.205597	2.848139	0.000000	0.007783	0.000000	-0.000010	-0.000000	0.000000	0.000000
69.436288	23.313178	11.463536	-0.061479	0.175511	2.850743	0.000000	0.007783	0.000000	-0.000010	-0.000000	0.000000	0.000000
69.733611	23.353542	11.367118	-0.135305	0.178478	2.853057	0.000000	0.015239	0.000000	-0.000010	-0.000000	0.000000	0.000000
70.282671	23.101042	11.398749	0.592460	-0.236427	2.838245	0.000000	-0.069114	0.000000	-0.000010	0.000000	0.000000	0.000000
