#ParticleID	Turn	x[m]	xp	y[m]	yp	z[m]	dE[GeV]# s	beta_x	beta_y	alpha_x	alpha_y	D_x	D_y	D_px	D_py	orbit_x	orbit_px	orbit_y	orbit_py
0.300000	11.828044	24.961764	-0.012821	-0.027716	2.618200	0.000000	-0.000021	0.000000	-0.000000	0.000000	0.000000	0.000000
0.601250	11.843443	24.982101	-0.038294	-0.039793	2.618194	0.000000	-0.000021	0.000000	-0.000000	0.000000	0.000000	0.000000
0.898573	11.873689	25.009308	-0.034318	-0.113044	2.618187	0.000000	-0.006441	0.000000	-0.000000	0.000000	0.000000	0.000000
1.339533	12.056261	24.831614	-0.381286	0.514480	2.631641	0.000000	0.067518	0.000000	0.000000	0.000000	0.000000	0.000000
1.780493	12.551327	24.108742	-0.745673	1.118596	2.677845	0.000000	0.142246	0.000000	0.000000	0.000000	0.000000	0.000000
2.221453	13.381505	22.873582	-1.144129	1.671816	2.757327	0.000000	0.218594	0.000000	0.000000	0.000000	0.000000	0.000000
2.662413	14.584724	21.182332	-1.594857	2.148970	2.870992	0.000000	0.297432	0.000000	0.000000	0.000000	0.000000	0.000000
3.108373	16.236749	19.087138	-2.122747	2.529478	3.021996	0.000000	0.380146	0.000000	0.000001	0.000000	0.000000	0.000000
3.657433	18.355157	16.734018	-1.712658	1.781544	3.205447	0.000000	0.287109	0.000000	0.000001	0.000000	0.000000	0.000000
4.206493	19.953739	15.128136	-1.181596	1.160505	3.336340	0.000000	0.188978	0.000000	0.000001	0.000000	0.000000	0.000000
4.755553	20.919581	14.155108	-0.567072	0.622126	3.412352	0.000000	0.087496	0.000000	0.000001	0.000000	0.000000	0.000000
5.304613	21.184459	13.745627	0.087507	0.128060	3.432136	0.000000	-0.015539	0.000000	0.000001	0.000000	0.000000	0.000000
5.603185	21.169469	13.654370	0.018048	0.141670	3.430173	0.000000	-0.006571	0.000000	0.000001	0.000000	0.000000	0.000000
5.936519	21.162688	13.568224	0.002297	0.116767	3.427983	0.000000	-0.006571	0.000000	0.000001	0.000000	0.000000	0.000000
6.269852	21.166407	13.498680	-0.013454	0.091865	3.425793	0.000000	-0.006571	0.000000	0.000001	0.000000	0.000000	0.000000
6.604435	21.180700	13.445570	-0.029264	0.066870	3.423594	0.000000	-0.006571	0.000000	0.000001	0.000000	0.000000	0.000000
6.901758	21.202279	13.412411	-0.098711	0.079701	3.421640	0.000000	0.002369	0.000000	0.000002	0.000000	0.000000	0.000000
7.450818	20.949262	13.585440	0.556802	-0.396699	3.394740	0.000000	-0.100210	0.000000	0.000002	0.000000	0.000000	0.000000
7.999878	19.993849	14.293968	1.172985	-0.901356	3.311924	0.000000	-0.201012	0.000000	0.000002	0.000000	0.000000	0.000000
8.548938	18.403526	15.588461	1.706315	-1.470214	3.174660	0.000000	-0.298248	0.000000	0.000002	0.000000	0.000000	0.000000
9.097998	16.290626	17.561123	2.119119	-2.143792	2.985383	0.000000	-0.390194	0.000000	0.000002	0.000000	0.000000	0.000000
9.543958	14.642073	19.318920	1.590663	-1.781152	2.829679	0.000000	-0.308490	0.000000	0.000002	0.000000	0.000000	0.000000
9.984918	13.442873	20.699906	1.139177	-1.338701	2.710893	0.000000	-0.230783	0.000000	0.000002	0.000000	0.000000	0.000000
10.425878	12.617478	21.662233	0.739736	-0.835340	2.625761	0.000000	-0.155705	0.000000	0.000002	0.000000	0.000000	0.000000
10.866838	12.128181	22.162117	0.374092	-0.293971	2.573313	0.000000	-0.082400	0.000000	0.000002	0.000000	0.000000	0.000000
11.309048	11.952489	22.176296	0.054745	0.206331	2.552932	0.000000	-0.016294	0.000000	0.000002	0.000000	0.000000	0.000000
11.606371	11.927353	22.057758	0.029795	0.192353	2.548088	0.000000	-0.016294	0.000000	0.000002	0.000000	0.000000	0.000000
12.086371	11.918083	21.883932	-0.010484	0.169786	2.540266	0.000000	-0.016294	0.000000	0.000002	0.000000	0.000000	0.000000
12.566371	11.947482	21.731769	-0.050764	0.147220	2.532445	0.000000	-0.016294	0.000000	0.000002	0.000000	0.000000	0.000000
13.046371	12.015549	21.601269	-0.091043	0.124654	2.524624	0.000000	-0.016294	0.000000	0.000002	0.000000	0.000000	0.000000
13.526371	12.122285	21.492433	-0.131322	0.102088	2.516802	0.000000	-0.016294	0.000000	0.000003	0.000000	0.000000	0.000000
14.007621	12.268117	21.405062	-0.171706	0.079463	2.508961	0.000000	-0.016294	0.000000	0.000003	0.000000	0.000000	0.000000
14.304943	12.377640	21.361965	-0.166304	0.013100	2.504116	0.000000	-0.022435	0.000000	0.000003	0.000000	0.000000	0.000000
14.745903	12.683001	21.116581	-0.528815	0.541260	2.509854	0.000000	0.048484	0.000000	0.000003	0.000000	0.000000	0.000000
15.186863	13.317473	20.414523	-0.915486	1.044793	2.546955	0.000000	0.119955	0.000000	0.000003	0.000000	0.000000	0.000000
15.627823	14.310043	19.287736	-1.343983	1.500788	2.615844	0.000000	0.192792	0.000000	0.000003	0.000000	0.000000	0.000000
16.068783	15.706058	17.787487	-1.833883	1.888499	2.717304	0.000000	0.267825	0.000000	0.000003	0.000001	0.000000	0.000000
16.514743	17.592954	15.960534	-2.412325	2.191034	2.854186	0.000000	0.346371	0.000000	0.000004	0.000001	0.000000	0.000000
17.063803	20.016186	13.920460	-1.974968	1.546473	3.020636	0.000000	0.259046	0.000000	0.000004	0.000001	0.000000	0.000000
17.612863	21.879237	12.523914	-1.398109	1.012064	3.137805	0.000000	0.167126	0.000000	0.000004	0.000000	0.000000	0.000000
18.161923	23.050509	11.671421	-0.722494	0.549742	3.203615	0.000000	0.072241	0.000000	0.000005	0.000000	0.000000	0.000000
18.710983	23.447269	11.302261	0.004154	0.126577	3.216899	0.000000	-0.023924	0.000000	0.000005	0.000000	0.000000	0.000000
19.009556	23.485185	11.217122	-0.069882	0.129045	3.212265	0.000000	-0.015520	0.000000	0.000005	0.000000	0.000000	0.000000
19.342889	23.536527	11.141162	-0.084145	0.098834	3.207092	0.000000	-0.015520	0.000000	0.000005	0.000000	0.000000	0.000000
19.676223	23.597378	11.085344	-0.098408	0.068623	3.201918	0.000000	-0.015520	0.000000	0.000005	0.000000	0.000000	0.000000
20.010806	23.668312	11.049433	-0.229990	0.093044	3.196746	0.000000	0.000319	0.000000	0.000005	0.000000	0.000000	0.000000
20.308129	23.809007	11.002175	-0.305422	0.094648	3.196840	0.000000	0.008671	0.000000	0.000005	0.000000	0.000000	0.000000
20.857189	23.733760	11.120734	0.441657	-0.311854	3.175384	0.000000	-0.086712	0.000000	0.000005	-0.000000	0.000000	0.000000
21.406249	22.850476	11.695187	1.157540	-0.740569	3.101903	0.000000	-0.180558	0.000000	0.000005	-0.000000	0.000000	0.000000
21.955309	21.221545	12.766451	1.791661	-1.222033	2.977699	0.000000	-0.271200	0.000000	0.000005	-0.000000	0.000000	0.000000
22.504369	18.962027	14.410828	2.299227	-1.790540	2.804976	0.000000	-0.357033	0.000000	0.000004	-0.000000	0.000000	0.000000
22.950329	17.181455	15.887034	1.707540	-1.505672	2.663046	0.000000	-0.279829	0.000000	0.000004	-0.000000	0.000000	0.000000
23.391289	15.904823	17.063949	1.198563	-1.153155	2.555973	0.000000	-0.206267	0.000000	0.000004	-0.000000	0.000000	0.000000
23.832249	15.051316	17.905560	0.744344	-0.748169	2.480790	0.000000	-0.135055	0.000000	0.000004	-0.000000	0.000000	0.000000
24.273209	14.581941	18.373573	0.324133	-0.309143	2.436641	0.000000	-0.065380	0.000000	0.000004	-0.000000	0.000000	0.000000
24.715418	14.475367	18.446448	-0.045860	0.098646	2.423018	0.000000	-0.002392	0.000000	0.000004	0.000000	0.000000	0.000000
25.012741	14.508758	18.392628	-0.066443	0.082371	2.422307	0.000000	-0.002392	0.000000	0.000004	0.000000	0.000000	0.000000
25.346075	14.560745	18.343796	-0.089519	0.064125	2.421510	0.000000	-0.002392	0.000000	0.000004	0.000000	0.000000	0.000000
25.679408	14.628116	18.307129	-0.112595	0.045878	2.420712	0.000000	-0.002392	0.000000	0.000004	0.000000	0.000000	0.000000
26.013991	14.710913	18.282927	-0.016413	-0.120756	2.419887	0.000000	-0.022024	0.000000	0.000004	0.000000	0.000000	0.000000
26.311314	14.726683	18.359639	-0.000517	-0.182277	2.413339	0.000000	-0.027942	0.000000	0.000004	0.000000	0.000000	0.000000
26.752274	14.908602	18.321236	-0.413598	0.269037	2.416127	0.000000	0.040599	0.000000	0.000004	0.000000	0.000000	0.000000
27.193234	15.461748	17.888707	-0.845576	0.708110	2.449212	0.000000	0.109602	0.000000	0.000004	0.000000	0.000000	0.000000
27.634194	16.411396	17.081733	-1.316185	1.114965	2.512970	0.000000	0.179853	0.000000	0.000004	0.000000	0.000000	0.000000
28.075154	17.800931	15.937030	-1.846927	1.471090	2.608128	0.000000	0.252153	0.000000	0.000004	0.000000	0.000000	0.000000
28.521114	19.717983	14.489442	-2.467008	1.761195	2.737373	0.000000	0.327768	0.000000	0.000005	0.000001	0.000000	0.000000
29.070174	22.154566	12.876409	-1.944456	1.193954	2.894674	0.000000	0.244376	0.000000	0.000005	0.000000	0.000000	0.000000
29.619234	23.938045	11.836200	-1.284557	0.711756	3.004930	0.000000	0.156649	0.000000	0.000005	0.000000	0.000000	0.000000
30.168294	24.942445	11.294722	-0.533923	0.280255	3.066183	0.000000	0.066144	0.000000	0.000005	0.000000	0.000000	0.000000
30.717354	25.096820	11.213407	0.254424	-0.131283	3.077348	0.000000	-0.025535	0.000000	0.000005	-0.000000	0.000000	0.000000
31.015927	24.987726	11.282341	0.176533	-0.128890	3.072125	0.000000	-0.017495	0.000000	0.000005	-0.000000	0.000000	0.000000
31.349260	24.874623	11.378279	0.162777	-0.158925	3.066293	0.000000	-0.017495	0.000000	0.000005	-0.000000	0.000000	0.000000
31.682593	24.770690	11.494241	0.149022	-0.188961	3.060462	0.000000	-0.017495	0.000000	0.000005	-0.000000	0.000000	0.000000
32.017177	24.675589	11.630774	0.135214	-0.219109	3.054608	0.000000	-0.017495	0.000000	0.000005	-0.000000	0.000000	0.000000
32.314499	24.598833	11.769031	0.058675	-0.215150	3.049407	0.000000	-0.009527	0.000000	0.000005	-0.000000	0.000000	0.000000
32.863559	24.113001	12.244618	0.820929	-0.656146	3.019296	0.000000	-0.099994	0.000000	0.000005	-0.000000	0.000000	0.000000
33.412619	22.817166	13.227138	1.525197	-1.143877	2.939928	0.000000	-0.188686	0.000000	0.000005	-0.000000	0.000000	0.000000
33.961679	20.802859	14.786576	2.121732	-1.713083	2.812711	0.000000	-0.274032	0.000000	0.000005	-0.000001	0.000000	0.000000
34.510739	18.212360	17.034005	2.568399	-2.404309	2.639901	0.000000	-0.354517	0.000000	0.000004	-0.000001	0.000000	0.000000
34.956699	16.198255	19.044188	1.964120	-2.084410	2.498141	0.000000	-0.281593	0.000000	0.000004	-0.000001	0.000000	0.000000
35.397659	14.696442	20.706243	1.454581	-1.670420	2.389350	0.000000	-0.212305	0.000000	0.000004	-0.000000	0.000000	0.000000
35.838619	13.613110	21.968154	1.011497	-1.180427	2.310551	0.000000	-0.145434	0.000000	0.000004	-0.000000	0.000000	0.000000
36.279579	12.898765	22.772507	0.614626	-0.636726	2.260846	0.000000	-0.080220	0.000000	0.000003	-0.000000	0.000000	0.000000
36.721789	12.520079	23.083004	0.276431	-0.120713	2.239643	0.000000	-0.021412	0.000000	0.000003	-0.000000	0.000000	0.000000
37.019112	12.363300	23.158671	0.250869	-0.133781	2.233277	0.000000	-0.021412	0.000000	0.000003	-0.000000	0.000000	0.000000
37.352445	12.205607	23.252742	0.222210	-0.148432	2.226139	0.000000	-0.021412	0.000000	0.000003	-0.000000	0.000000	0.000000
37.685779	12.067020	23.356580	0.193552	-0.163083	2.219002	0.000000	-0.021412	0.000000	0.000003	-0.000000	0.000000	0.000000
38.020362	11.947126	23.470631	0.164786	-0.177789	2.211838	0.000000	-0.021412	0.000000	0.000003	-0.000000	0.000000	0.000000
38.317684	11.856737	23.580238	0.168299	-0.248681	2.205472	0.000000	-0.026820	0.000000	0.000003	-0.000000	0.000000	0.000000
38.758644	11.859536	23.538390	-0.174670	0.343220	2.207572	0.000000	0.036353	0.000000	0.000003	-0.000000	0.000000	0.000000
39.199604	12.167168	22.979452	-0.525620	0.919506	2.237593	0.000000	0.099940	0.000000	0.000003	-0.000000	0.000000	0.000000
39.640564	12.793691	21.928852	-0.900584	1.453955	2.295878	0.000000	0.164665	0.000000	0.000003	-0.000000	0.000000	0.000000
40.081524	13.767726	20.434394	-1.316693	1.922250	2.383089	0.000000	0.231266	0.000000	0.000003	0.000000	0.000000	0.000000
40.527484	15.151340	18.541507	-1.796782	2.304363	2.501694	0.000000	0.300906	0.000000	0.000003	0.000000	0.000000	0.000000
41.076544	16.917204	16.414462	-1.400336	1.592479	2.646381	0.000000	0.225354	0.000000	0.000003	0.000000	0.000000	0.000000
41.625604	18.190497	15.002649	-0.904978	0.994025	2.748425	0.000000	0.145805	0.000000	0.000003	-0.000000	0.000000	0.000000
42.174664	18.881282	14.205508	-0.345697	0.466373	2.806018	0.000000	0.063671	0.000000	0.000003	-0.000000	0.000000	0.000000
42.723724	18.940764	13.966261	0.238003	-0.028061	2.818136	0.000000	-0.019594	0.000000	0.000003	-0.000000	0.000000	0.000000
43.022297	18.833066	13.967611	0.172192	-0.012950	2.814484	0.000000	-0.012231	0.000000	0.000003	-0.000000	0.000000	0.000000
43.502297	18.680359	13.996542	0.145949	-0.047321	2.808614	0.000000	-0.012231	0.000000	0.000003	-0.000000	0.000000	0.000000
43.982297	18.552844	14.058468	0.119706	-0.081692	2.802743	0.000000	-0.012231	0.000000	0.000002	-0.000000	0.000000	0.000000
44.462297	18.450522	14.153391	0.093464	-0.116063	2.796872	0.000000	-0.012231	0.000000	0.000002	-0.000000	0.000000	0.000000
44.942297	18.373394	14.281310	0.067221	-0.150434	2.791002	0.000000	-0.012231	0.000000	0.000002	-0.000000	0.000000	0.000000
45.423547	18.321583	14.442508	-0.049866	-0.113338	2.785133	0.000000	0.001569	0.000000	0.000002	-0.000000	0.000000	0.000000
45.720870	18.356072	14.516103	-0.114094	-0.096262	2.785600	0.000000	0.008847	0.000000	0.000002	-0.000000	0.000000	0.000000
46.269930	18.172275	14.902632	0.446862	-0.611877	2.767887	0.000000	-0.073273	0.000000	0.000002	-0.000000	0.000000	0.000000
46.818990	17.386247	15.875835	0.976253	-1.171075	2.705376	0.000000	-0.154092	0.000000	0.000002	-0.000000	0.000000	0.000000
47.368050	16.053508	17.505031	1.436687	-1.813686	2.599177	0.000000	-0.232179	0.000000	0.000002	-0.000000	0.000000	0.000000
47.917110	14.268198	19.906264	1.795641	-2.585482	2.451173	0.000000	-0.306147	0.000000	0.000001	-0.000000	0.000000	0.000000
48.363070	12.878764	22.041262	1.330999	-2.181810	2.329935	0.000000	-0.237852	0.000000	0.000001	-0.000000	0.000000	0.000000
48.804030	11.885112	23.750731	0.930933	-1.680138	2.239511	0.000000	-0.172663	0.000000	0.000001	-0.000000	0.000000	0.000000
49.244990	11.224268	24.982238	0.573400	-1.102020	2.177372	0.000000	-0.109441	0.000000	0.000001	-0.000000	0.000000	0.000000
49.685950	10.866040	25.679749	0.242064	-0.473761	2.142810	0.000000	-0.047465	0.000000	0.000001	-0.000000	0.000000	0.000000
50.128160	10.794192	25.811246	-0.051859	0.112707	2.135444	0.000000	0.008734	0.000000	0.000001	-0.000000	0.000000	0.000000
50.425482	10.833241	25.747694	-0.079478	0.101041	2.138040	0.000000	0.008734	0.000000	0.000000	-0.000000	0.000000	0.000000
50.758816	10.896548	25.684692	-0.110442	0.087963	2.140952	0.000000	0.008734	0.000000	0.000000	-0.000000	0.000000	0.000000
51.092149	10.980497	25.630410	-0.141406	0.074885	2.143863	0.000000	0.008734	0.000000	0.000000	-0.000000	0.000000	0.000000
51.426732	11.085295	25.585210	-0.082555	-0.145802	2.146764	0.000000	-0.008682	0.000000	0.000000	-0.000000	0.000000	0.000000
51.724055	11.142415	25.675440	-0.082234	-0.220634	2.144183	0.000000	-0.013940	0.000000	0.000000	-0.000000	0.000000	0.000000
52.165015	11.360392	25.584401	-0.413965	0.426303	2.151624	0.000000	0.047722	0.000000	-0.000000	-0.000000	0.000000	0.000000
52.605975	11.878132	24.929222	-0.764609	1.053844	2.186349	0.000000	0.109927	0.000000	-0.000000	-0.000000	0.000000	0.000000
53.046935	12.719288	23.739712	-1.150185	1.633436	2.248755	0.000000	0.173384	0.000000	-0.000000	-0.000000	0.000000	0.000000
53.487895	13.922291	22.069994	-1.588310	2.138708	2.339550	0.000000	0.238816	0.000000	-0.000001	-0.000000	0.000000	0.000000
53.933855	15.562719	19.971070	-2.103237	2.548005	2.461275	0.000000	0.307367	0.000000	-0.000001	-0.000000	0.000000	0.000000
54.482915	17.674672	17.609331	-1.720482	1.778808	2.609858	0.000000	0.233062	0.000000	-0.000001	-0.000000	0.000000	0.000000
55.031975	19.296688	16.018148	-1.216200	1.136311	2.716447	0.000000	0.154623	0.000000	-0.000001	-0.000000	0.000000	0.000000
55.581035	20.314197	15.084185	-0.626013	0.574752	2.779150	0.000000	0.073442	0.000000	-0.000001	-0.000000	0.000000	0.000000
56.130095	20.655326	14.740917	0.008394	0.054131	2.796856	0.000000	-0.009042	0.000000	-0.000001	-0.000000	0.000000	0.000000
56.428668	20.686866	14.691693	-0.060061	0.072218	2.796338	0.000000	-0.001735	0.000000	-0.000001	-0.000000	0.000000	0.000000
56.762001	20.732297	14.651150	-0.076232	0.049411	2.795760	0.000000	-0.001735	0.000000	-0.000001	-0.000000	0.000000	0.000000
57.095334	20.788509	14.625812	-0.092403	0.026604	2.795182	0.000000	-0.001735	0.000000	-0.000002	-0.000000	0.000000	0.000000
57.429918	20.855773	14.615668	-0.108636	0.003712	2.794601	0.000000	-0.001735	0.000000	-0.000002	-0.000000	0.000000	0.000000
57.727240	20.924661	14.619510	-0.177733	0.021567	2.794086	0.000000	0.005566	0.000000	-0.000002	-0.000000	0.000000	0.000000
58.276300	20.762800	14.876627	0.470786	-0.492618	2.774502	0.000000	-0.076798	0.000000	-0.000002	-0.000000	0.000000	0.000000
58.825360	19.902913	15.714220	1.086050	-1.041890	2.710002	0.000000	-0.157800	0.000000	-0.000002	-0.000000	0.000000	0.000000
59.374420	18.405740	17.191948	1.624602	-1.665375	2.601732	0.000000	-0.236003	0.000000	-0.000002	-0.000000	0.000000	0.000000
59.923480	16.377033	19.415067	2.048400	-2.407480	2.451612	0.000000	-0.310020	0.000000	-0.000002	0.000000	0.000000	0.000000
60.369440	14.789096	21.391060	1.524926	-2.004694	2.328646	0.000000	-0.241736	0.000000	-0.000002	-0.000000	0.000000	0.000000
60.810400	13.646818	22.947734	1.075334	-1.512066	2.236499	0.000000	-0.176602	0.000000	-0.000002	-0.000000	0.000000	0.000000
61.251360	12.877965	24.037837	0.674870	-0.950640	2.172602	0.000000	-0.113480	0.000000	-0.000002	-0.000000	0.000000	0.000000
61.692320	12.447409	24.611771	0.305240	-0.345961	2.136229	0.000000	-0.051650	0.000000	-0.000002	-0.000000	0.000000	0.000000
62.134530	12.335531	24.642886	-0.020296	0.213972	2.126970	0.000000	0.004375	0.000000	-0.000002	-0.000000	0.000000	0.000000
62.431853	12.354769	24.519400	-0.044409	0.201354	2.128271	0.000000	0.004375	0.000000	-0.000002	-0.000000	0.000000	0.000000
62.765186	12.393386	24.389879	-0.071442	0.187208	2.129729	0.000000	0.004375	0.000000	-0.000002	-0.000000	0.000000	0.000000
63.098520	12.450025	24.269789	-0.098476	0.173062	2.131188	0.000000	0.004375	0.000000	-0.000002	-0.000000	0.000000	0.000000
63.433103	12.525001	24.158733	-0.125610	0.158863	2.132652	0.000000	0.004375	0.000000	-0.000003	-0.000000	0.000000	0.000000
63.730426	12.606864	24.068017	-0.118807	0.087222	2.133953	0.000000	-0.000858	0.000000	-0.000003	-0.000000	0.000000	0.000000
64.171386	12.872132	23.726019	-0.485045	0.685403	2.147115	0.000000	0.060614	0.000000	-0.000003	-0.000000	0.000000	0.000000
64.612346	13.468906	22.868262	-0.873443	1.252398	2.187510	0.000000	0.122776	0.000000	-0.000003	-0.000000	0.000000	0.000000
65.053306	14.424453	21.533775	-1.301746	1.762409	2.255599	0.000000	0.186336	0.000000	-0.000003	-0.000000	0.000000	0.000000
65.494266	15.782427	19.783275	-1.789523	2.192233	2.352156	0.000000	0.252019	0.000000	-0.000003	-0.000001	0.000000	0.000000
65.940226	17.628039	17.671629	-2.363751	2.523069	2.479853	0.000000	0.320974	0.000000	-0.000004	-0.000001	0.000000	0.000000
66.489286	19.993765	15.309284	-1.919429	1.804854	2.635721	0.000000	0.245949	0.000000	-0.000004	-0.000001	0.000000	0.000000
67.038346	21.793783	13.660826	-1.339527	1.215195	2.749134	0.000000	0.166562	0.000000	-0.000004	-0.000000	0.000000	0.000000
67.587406	22.900947	12.608839	-0.665008	0.712092	2.818083	0.000000	0.084220	0.000000	-0.000004	-0.000000	0.000000	0.000000
68.136466	23.237053	12.078393	0.056483	0.259709	2.841344	0.000000	0.000384	0.000000	-0.000004	-0.000000	0.000000	0.000000
68.435038	23.243417	11.912470	-0.017082	0.264452	2.843675	0.000000	0.007808	0.000000	-0.000004	-0.000000	0.000000	0.000000
68.768372	23.259587	11.746148	-0.031427	0.234514	2.846278	0.000000	0.007808	0.000000	-0.000004	-0.000000	0.000000	0.000000
69.101705	23.285320	11.599785	-0.045773	0.204575	2.848881	0.000000	0.007808	0.000000	-0.000004	-0.000000	0.000000	0.000000
69.436288	23.320768	11.472945	-0.060171	0.174524	2.851493	0.000000	0.007808	0.000000	-0.000005	-0.000000	0.000000	0.000000
69.733611	23.360353	11.377105	-0.134006	0.177547	2.853815	0.000000	0.015265	0.000000	-0.000005	-0.000000	0.000000	0.000000
70.282671	23.106313	11.409916	0.593947	-0.237657	2.839011	0.000000	-0.069112	0.000000	-0.000005	0.000000	0.000000	0.000000
