#ParticleID	Turn	x[m]	xp	y[m]	yp	z[m]	dE[GeV]# s	beta_x	beta_y	alpha_x	alpha_y	D_x	D_y	D_px	D_py	orbit_x	orbit_px	orbit_y	orbit_py
0.300000	11.826897	24.966040	-0.012662	-0.027695	2.618175	0.000000	-0.000011	0.000000	-0.000000	0.000000	0.000000	0.000000
0.601250	11.842201	24.986364	-0.038138	-0.039771	2.618172	0.000000	-0.000011	0.000000	0.000000	0.000000	0.000000	0.000000
0.898573	11.872355	25.013557	-0.034167	-0.113030	2.618169	0.000000	-0.006432	0.000000	0.000000	0.000000	0.000000	0.000000
1.339533	12.054780	24.835802	-0.381101	0.514606	2.631626	0.000000	0.067527	0.000000	0.000000	0.000000	0.000000	0.000000
1.780493	12.549664	24.112771	-0.745446	1.118828	2.677835	0.000000	0.142255	0.000000	0.000000	0.000000	0.000000	0.000000
2.221453	13.379619	22.877363	-1.143848	1.672144	2.757321	0.000000	0.218603	0.000000	0.000001	0.000000	0.000000	0.000000
2.662413	14.582562	21.185787	-1.594510	2.149379	2.870990	0.000000	0.297440	0.000000	0.000001	0.000000	0.000000	0.000000
3.108373	16.234243	19.090199	-2.122318	2.529949	3.021997	0.000000	0.380155	0.000000	0.000001	0.000000	0.000000	0.000000
3.657433	18.352212	16.736629	-1.712292	1.781897	3.205453	0.000000	0.287117	0.000000	0.000001	0.000000	0.000000	0.000000
4.206493	19.950439	15.130412	-1.181319	1.160765	3.336350	0.000000	0.188986	0.000000	0.000001	0.000000	0.000000	0.000000
4.755553	20.916033	14.157140	-0.566903	0.622313	3.412367	0.000000	0.087504	0.000000	0.000001	0.000000	0.000000	0.000000
5.304613	21.180791	13.747489	0.087556	0.128186	3.432154	0.000000	-0.015531	0.000000	0.000001	0.000000	0.000000	0.000000
5.603185	21.165767	13.656154	0.018104	0.141802	3.430195	0.000000	-0.006564	0.000000	0.000001	0.000000	0.000000	0.000000
5.936519	21.158949	13.569920	0.002350	0.116902	3.428007	0.000000	-0.006564	0.000000	0.000002	0.000000	0.000000	0.000000
6.269852	21.162633	13.500285	-0.013404	0.092002	3.425819	0.000000	-0.006564	0.000000	0.000002	0.000000	0.000000	0.000000
6.604435	21.176893	13.447083	-0.029217	0.067009	3.423622	0.000000	-0.006564	0.000000	0.000002	0.000000	0.000000	0.000000
6.901758	21.198444	13.413840	-0.098655	0.079846	3.421671	0.000000	0.002376	0.000000	0.000002	0.000000	0.000000	0.000000
7.450818	20.945437	13.586732	0.556729	-0.396592	3.394774	0.000000	-0.100204	0.000000	0.000002	0.000000	0.000000	0.000000
7.999878	19.990174	14.295159	1.172788	-0.901279	3.311961	0.000000	-0.201007	0.000000	0.000002	0.000000	0.000000	0.000000
8.548938	18.400130	15.589582	1.706008	-1.470162	3.174700	0.000000	-0.298244	0.000000	0.000002	0.000000	0.000000	0.000000
9.097998	16.287618	17.562200	2.118723	-2.143762	2.985425	0.000000	-0.390191	0.000000	0.000002	-0.000000	0.000000	0.000000
9.543958	14.639377	19.319953	1.590356	-1.781083	2.829722	0.000000	-0.308486	0.000000	0.000002	0.000000	0.000000	0.000000
9.984918	13.440414	20.700861	1.138942	-1.338596	2.710938	0.000000	-0.230778	0.000000	0.000002	0.000000	0.000000	0.000000
10.425878	12.615199	21.663082	0.739564	-0.835204	2.625808	0.000000	-0.155699	0.000000	0.000002	0.000000	0.000000	0.000000
10.866838	12.126028	22.162834	0.373975	-0.293811	2.573364	0.000000	-0.082393	0.000000	0.000002	0.000000	0.000000	0.000000
11.309048	11.950418	22.176863	0.054672	0.206507	2.552986	0.000000	-0.016286	0.000000	0.000002	0.000000	0.000000	0.000000
11.606371	11.925327	22.058221	0.029717	0.192528	2.548144	0.000000	-0.016286	0.000000	0.000002	0.000000	0.000000	0.000000
12.086371	11.916136	21.884226	-0.010569	0.169961	2.540327	0.000000	-0.016286	0.000000	0.000002	0.000000	0.000000	0.000000
12.566371	11.945619	21.731895	-0.050855	0.147394	2.532510	0.000000	-0.016286	0.000000	0.000002	0.000000	0.000000	0.000000
13.046371	12.013776	21.601229	-0.091141	0.124827	2.524693	0.000000	-0.016286	0.000000	0.000002	0.000000	0.000000	0.000000
13.526371	12.120608	21.492227	-0.131427	0.102260	2.516875	0.000000	-0.016286	0.000000	0.000003	0.000000	0.000000	0.000000
14.007621	12.266545	21.404691	-0.171817	0.079634	2.509038	0.000000	-0.016286	0.000000	0.000003	0.000000	0.000000	0.000000
14.304943	12.376135	21.361494	-0.166422	0.013272	2.504196	0.000000	-0.022427	0.000000	0.000003	0.000000	0.000000	0.000000
14.745903	12.681586	21.115965	-0.528903	0.541415	2.509937	0.000000	0.048494	0.000000	0.000003	0.000000	0.000000	0.000000
15.186863	13.316124	20.413781	-0.915548	1.044924	2.547044	0.000000	0.119968	0.000000	0.000003	0.000000	0.000000	0.000000
15.627823	14.308738	19.286890	-1.344021	1.500890	2.615939	0.000000	0.192807	0.000000	0.000003	0.000000	0.000000	0.000000
16.068783	15.704778	17.786566	-1.833899	1.888567	2.717407	0.000000	0.267843	0.000000	0.000003	0.000001	0.000000	0.000000
16.514743	17.591679	15.959570	-2.412320	2.191063	2.854297	0.000000	0.346391	0.000000	0.000004	0.000001	0.000000	0.000000
17.063803	20.014936	13.919455	-1.975018	1.546518	3.020757	0.000000	0.259062	0.000000	0.000004	0.000000	0.000000	0.000000
17.612863	21.878070	12.522849	-1.398211	1.012128	3.137934	0.000000	0.167138	0.000000	0.000004	0.000000	0.000000	0.000000
18.161923	23.049480	11.670272	-0.722641	0.549830	3.203749	0.000000	0.072249	0.000000	0.000004	0.000000	0.000000	0.000000
18.710983	23.446422	11.300999	0.003973	0.126695	3.217037	0.000000	-0.023921	0.000000	0.000004	0.000000	0.000000	0.000000
19.009556	23.484445	11.215794	-0.070062	0.129156	3.212404	0.000000	-0.015515	0.000000	0.000004	0.000000	0.000000	0.000000
19.342889	23.535907	11.139761	-0.084326	0.098940	3.207232	0.000000	-0.015515	0.000000	0.000004	0.000000	0.000000	0.000000
19.676223	23.596879	11.083873	-0.098589	0.068725	3.202060	0.000000	-0.015515	0.000000	0.000004	0.000000	0.000000	0.000000
20.010806	23.667935	11.047896	-0.230170	0.093134	3.196889	0.000000	0.000324	0.000000	0.000004	0.000000	0.000000	0.000000
20.308129	23.808737	11.000585	-0.305604	0.094730	3.196985	0.000000	0.008677	0.000000	0.000004	0.000000	0.000000	0.000000
20.857189	23.733694	11.119030	0.441471	-0.311726	3.175531	0.000000	-0.086712	0.000000	0.000004	-0.000000	0.000000	0.000000
21.406249	22.850611	11.693313	1.157362	-0.740385	3.102048	0.000000	-0.180562	0.000000	0.000004	-0.000000	0.000000	0.000000
21.955309	21.221865	12.764337	1.791503	-1.221780	2.977841	0.000000	-0.271209	0.000000	0.000004	-0.000000	0.000000	0.000000
22.504369	18.962503	14.408391	2.299101	-1.790200	2.805112	0.000000	-0.357046	0.000000	0.000004	-0.000000	0.000000	0.000000
22.950329	17.182042	15.884318	1.707416	-1.505388	2.663177	0.000000	-0.279839	0.000000	0.000004	-0.000000	0.000000	0.000000
23.391289	15.905520	17.061011	1.198435	-1.152938	2.556101	0.000000	-0.206274	0.000000	0.000004	-0.000000	0.000000	0.000000
23.832249	15.052130	17.902464	0.744207	-0.748031	2.480915	0.000000	-0.135058	0.000000	0.000004	-0.000000	0.000000	0.000000
24.273209	14.582882	18.370392	0.323980	-0.309089	2.436765	0.000000	-0.065380	0.000000	0.000004	-0.000000	0.000000	0.000000
24.715418	14.476453	18.443258	-0.046032	0.098621	2.423143	0.000000	-0.002389	0.000000	0.000004	0.000000	0.000000	0.000000
25.012741	14.509945	18.389453	-0.066614	0.082343	2.422433	0.000000	-0.002389	0.000000	0.000004	0.000000	0.000000	0.000000
25.346075	14.562046	18.340641	-0.089689	0.064094	2.421636	0.000000	-0.002389	0.000000	0.000004	0.000000	0.000000	0.000000
25.679408	14.629530	18.303994	-0.112764	0.045845	2.420840	0.000000	-0.002389	0.000000	0.000004	0.000000	0.000000	0.000000
26.013991	14.712439	18.279816	-0.016568	-0.120768	2.420016	0.000000	-0.022022	0.000000	0.000004	0.000000	0.000000	0.000000
26.311314	14.728301	18.356537	-0.000666	-0.182284	2.413468	0.000000	-0.027940	0.000000	0.000004	-0.000000	0.000000	0.000000
26.752274	14.910369	18.318176	-0.413789	0.268946	2.416258	0.000000	0.040604	0.000000	0.000004	0.000000	0.000000	0.000000
27.193234	15.463706	17.885763	-0.845818	0.707940	2.449345	0.000000	0.109610	0.000000	0.000004	0.000000	0.000000	0.000000
27.634194	16.413593	17.078971	-1.316489	1.114723	2.513108	0.000000	0.179865	0.000000	0.000004	0.000000	0.000000	0.000000
28.075154	17.803428	15.934510	-1.847307	1.470786	2.608272	0.000000	0.252168	0.000000	0.000004	0.000000	0.000000	0.000000
28.521114	19.720859	14.487215	-2.467482	1.760844	2.737524	0.000000	0.327787	0.000000	0.000004	0.000000	0.000000	0.000000
29.070174	22.157924	12.874519	-1.944856	1.193687	2.894835	0.000000	0.244390	0.000000	0.000004	0.000000	0.000000	0.000000
29.619234	23.941790	11.834566	-1.284856	0.711554	3.005097	0.000000	0.156658	0.000000	0.000005	0.000000	0.000000	0.000000
30.168294	24.946453	11.293282	-0.534100	0.280103	3.066354	0.000000	0.066147	0.000000	0.000005	0.000000	0.000000	0.000000
30.717354	25.100950	11.212114	0.254382	-0.131397	3.077519	0.000000	-0.025537	0.000000	0.000005	-0.000000	0.000000	0.000000
31.015927	24.991887	11.281118	0.176481	-0.129010	3.072295	0.000000	-0.017496	0.000000	0.000005	-0.000000	0.000000	0.000000
31.349260	24.878817	11.377138	0.162728	-0.159050	3.066463	0.000000	-0.017496	0.000000	0.000005	-0.000000	0.000000	0.000000
31.682593	24.774916	11.493185	0.148975	-0.189090	3.060631	0.000000	-0.017496	0.000000	0.000005	-0.000000	0.000000	0.000000
32.017177	24.679845	11.629806	0.135171	-0.219242	3.054777	0.000000	-0.017496	0.000000	0.000004	-0.000000	0.000000	0.000000
32.314499	24.603114	11.768144	0.058622	-0.215290	3.049575	0.000000	-0.009529	0.000000	0.000004	-0.000000	0.000000	0.000000
32.863559	24.117262	12.243873	0.821019	-0.656267	3.019462	0.000000	-0.100000	0.000000	0.000004	-0.000000	0.000000	0.000000
33.412619	22.821252	13.226522	1.525423	-1.143990	2.940089	0.000000	-0.188698	0.000000	0.000004	-0.000000	0.000000	0.000000
33.961679	20.806629	14.786082	2.122079	-1.713196	2.812863	0.000000	-0.274049	0.000000	0.000004	-0.000000	0.000000	0.000000
34.510739	18.215695	17.033639	2.568841	-2.404429	2.640043	0.000000	-0.354539	0.000000	0.000004	-0.000001	0.000000	0.000000
34.956699	16.201240	19.043940	1.964464	-2.084555	2.498274	0.000000	-0.281612	0.000000	0.000003	-0.000001	0.000000	0.000000
35.397659	14.699161	20.706131	1.454842	-1.670584	2.389476	0.000000	-0.212320	0.000000	0.000003	-0.000000	0.000000	0.000000
35.838619	13.615630	21.968193	1.011688	-1.180602	2.310671	0.000000	-0.145446	0.000000	0.000003	-0.000000	0.000000	0.000000
36.279579	12.901144	22.772702	0.614755	-0.636904	2.260962	0.000000	-0.080229	0.000000	0.000003	-0.000000	0.000000	0.000000
36.721789	12.522368	23.083356	0.276511	-0.120887	2.239755	0.000000	-0.021418	0.000000	0.000003	-0.000000	0.000000	0.000000
37.019112	12.365541	23.159126	0.250952	-0.133956	2.233387	0.000000	-0.021418	0.000000	0.000003	-0.000000	0.000000	0.000000
37.352445	12.207791	23.253314	0.222298	-0.148607	2.226248	0.000000	-0.021418	0.000000	0.000003	-0.000000	0.000000	0.000000
37.685779	12.069144	23.357269	0.193644	-0.163259	2.219109	0.000000	-0.021418	0.000000	0.000003	-0.000000	0.000000	0.000000
38.020362	11.949187	23.471437	0.164882	-0.177965	2.211943	0.000000	-0.021418	0.000000	0.000003	-0.000000	0.000000	0.000000
38.317684	11.858740	23.581148	0.168404	-0.248860	2.205575	0.000000	-0.026827	0.000000	0.000002	-0.000000	0.000000	0.000000
38.758644	11.861467	23.539448	-0.174610	0.343068	2.207672	0.000000	0.036349	0.000000	0.000002	-0.000000	0.000000	0.000000
39.199604	12.169066	22.980629	-0.525602	0.919387	2.237692	0.000000	0.099939	0.000000	0.000002	-0.000000	0.000000	0.000000
39.640564	12.795590	21.930117	-0.900607	1.453875	2.295977	0.000000	0.164666	0.000000	0.000002	-0.000000	0.000000	0.000000
40.081524	13.769664	20.435711	-1.316758	1.922213	2.383190	0.000000	0.231270	0.000000	0.000002	0.000000	0.000000	0.000000
40.527484	15.153356	18.542836	-1.796892	2.304370	2.501797	0.000000	0.300912	0.000000	0.000002	0.000000	0.000000	0.000000
41.076544	16.919300	16.415800	-1.400372	1.592456	2.646487	0.000000	0.225357	0.000000	0.000002	0.000000	0.000000	0.000000
41.625604	18.192590	15.004031	-0.904937	0.993969	2.748532	0.000000	0.145805	0.000000	0.000002	-0.000000	0.000000	0.000000
42.174664	18.883289	14.206970	-0.345582	0.466281	2.806123	0.000000	0.063667	0.000000	0.000002	-0.000000	0.000000	0.000000
42.723724	18.942608	13.967847	0.238184	-0.028195	2.818239	0.000000	-0.019601	0.000000	0.000002	-0.000000	0.000000	0.000000
43.022297	18.834805	13.969273	0.172368	-0.013078	2.814585	0.000000	-0.012237	0.000000	0.000002	-0.000000	0.000000	0.000000
43.502297	18.681928	13.998324	0.146126	-0.047445	2.808711	0.000000	-0.012237	0.000000	0.000002	-0.000000	0.000000	0.000000
43.982297	18.554243	14.060368	0.119884	-0.081812	2.802837	0.000000	-0.012237	0.000000	0.000002	-0.000000	0.000000	0.000000
44.462297	18.451750	14.155403	0.093642	-0.116179	2.796964	0.000000	-0.012237	0.000000	0.000002	-0.000000	0.000000	0.000000
44.942297	18.374449	14.283431	0.067401	-0.150546	2.791090	0.000000	-0.012237	0.000000	0.000002	-0.000000	0.000000	0.000000
45.423547	18.322465	14.444735	-0.049689	-0.113434	2.785218	0.000000	0.001562	0.000000	0.000002	-0.000000	0.000000	0.000000
45.720870	18.356849	14.518387	-0.113919	-0.096349	2.785683	0.000000	0.008841	0.000000	0.000002	-0.000000	0.000000	0.000000
46.269930	18.172847	14.905051	0.447058	-0.612037	2.767966	0.000000	-0.073281	0.000000	0.000001	-0.000000	0.000000	0.000000
46.818990	17.386598	15.878474	0.976456	-1.171319	2.705450	0.000000	-0.154104	0.000000	0.000001	-0.000000	0.000000	0.000000
47.368050	16.053639	17.507991	1.436883	-1.814031	2.599244	0.000000	-0.232192	0.000000	0.000001	-0.000000	0.000000	0.000000
47.917110	14.268123	19.909669	1.795816	-2.585952	2.451232	0.000000	-0.306163	0.000000	0.000001	-0.000000	0.000000	0.000000
48.363070	12.878540	22.045054	1.331159	-2.182206	2.329987	0.000000	-0.237866	0.000000	0.000001	-0.000000	0.000000	0.000000
48.804030	11.884750	23.754834	0.931087	-1.680442	2.239557	0.000000	-0.172676	0.000000	0.000001	-0.000000	0.000000	0.000000
49.244990	11.223771	24.986562	0.573554	-1.102218	2.177413	0.000000	-0.109452	0.000000	0.000001	-0.000000	0.000000	0.000000
49.685950	10.865404	25.684198	0.242225	-0.473845	2.142846	0.000000	-0.047475	0.000000	0.000000	-0.000000	0.000000	0.000000
50.128160	10.793407	25.815717	-0.051686	0.112731	2.135475	0.000000	0.008724	0.000000	0.000000	-0.000000	0.000000	0.000000
50.425482	10.832354	25.752150	-0.079306	0.101067	2.138069	0.000000	0.008724	0.000000	0.000000	-0.000000	0.000000	0.000000
50.758816	10.895546	25.689131	-0.110272	0.087991	2.140977	0.000000	0.008724	0.000000	0.000000	-0.000000	0.000000	0.000000
51.092149	10.979383	25.634829	-0.141237	0.074915	2.143885	0.000000	0.008724	0.000000	-0.000000	-0.000000	0.000000	0.000000
51.426732	11.084068	25.589609	-0.082398	-0.145806	2.146783	0.000000	-0.008692	0.000000	-0.000000	-0.000000	0.000000	0.000000
51.724055	11.141095	25.679839	-0.082083	-0.220646	2.144198	0.000000	-0.013950	0.000000	-0.000000	-0.000000	0.000000	0.000000
52.165015	11.358924	25.588760	-0.413779	0.426407	2.151635	0.000000	0.047712	0.000000	-0.000000	-0.000000	0.000000	0.000000
52.605975	11.876482	24.933440	-0.764380	1.054060	2.186357	0.000000	0.109918	0.000000	-0.000000	-0.000000	0.000000	0.000000
53.046935	12.717414	23.743694	-1.149904	1.633753	2.248758	0.000000	0.173375	0.000000	-0.000001	-0.000000	0.000000	0.000000
53.487895	13.920141	22.073656	-1.587963	2.139113	2.339549	0.000000	0.238807	0.000000	-0.000001	-0.000000	0.000000	0.000000
53.933855	15.560225	19.974339	-2.102808	2.548479	2.461270	0.000000	0.307358	0.000000	-0.000001	-0.000000	0.000000	0.000000
54.482915	17.671737	17.612150	-1.720115	1.779159	2.609848	0.000000	0.233053	0.000000	-0.000001	-0.000000	0.000000	0.000000
55.031975	19.293397	16.020637	-1.215921	1.136565	2.716432	0.000000	0.154615	0.000000	-0.000001	-0.000000	0.000000	0.000000
55.581035	20.310657	15.086441	-0.625842	0.574925	2.779130	0.000000	0.073434	0.000000	-0.000001	-0.000000	0.000000	0.000000
56.130095	20.651663	14.743021	0.008444	0.054237	2.796832	0.000000	-0.009050	0.000000	-0.000002	-0.000000	0.000000	0.000000
56.428668	20.683168	14.693729	-0.060003	0.072332	2.796312	0.000000	-0.001742	0.000000	-0.000002	-0.000000	0.000000	0.000000
56.762001	20.728561	14.653109	-0.076177	0.049528	2.795731	0.000000	-0.001742	0.000000	-0.000002	-0.000000	0.000000	0.000000
57.095334	20.784737	14.627692	-0.092351	0.026724	2.795150	0.000000	-0.001742	0.000000	-0.000002	-0.000000	0.000000	0.000000
57.429918	20.851968	14.617468	-0.108586	0.003834	2.794568	0.000000	-0.001742	0.000000	-0.000002	-0.000000	0.000000	0.000000
57.727240	20.920827	14.621236	-0.177676	0.021697	2.794050	0.000000	0.005558	0.000000	-0.000002	-0.000000	0.000000	0.000000
58.276300	20.758974	14.878238	0.470714	-0.492536	2.774462	0.000000	-0.076804	0.000000	-0.000002	-0.000000	0.000000	0.000000
58.825360	19.899235	15.715764	1.085855	-1.041850	2.709960	0.000000	-0.157805	0.000000	-0.000002	-0.000000	0.000000	0.000000
59.374420	18.402339	17.193469	1.624296	-1.665373	2.601687	0.000000	-0.236006	0.000000	-0.000002	-0.000000	0.000000	0.000000
59.923480	16.374018	19.416607	2.048005	-2.407517	2.451565	0.000000	-0.310022	0.000000	-0.000002	0.000000	0.000000	0.000000
60.369440	14.786393	21.392612	1.524620	-2.004682	2.328598	0.000000	-0.241739	0.000000	-0.000002	-0.000000	0.000000	0.000000
60.810400	13.644353	22.949254	1.075100	-1.512006	2.236449	0.000000	-0.176607	0.000000	-0.000002	-0.000000	0.000000	0.000000
61.251360	12.875677	24.039284	0.674699	-0.950535	2.172550	0.000000	-0.113486	0.000000	-0.000002	-0.000000	0.000000	0.000000
61.692320	12.445248	24.613106	0.305123	-0.345815	2.136174	0.000000	-0.051658	0.000000	-0.000002	-0.000000	0.000000	0.000000
62.134530	12.333450	24.644077	-0.020368	0.214148	2.126912	0.000000	0.004366	0.000000	-0.000002	-0.000000	0.000000	0.000000
62.431853	12.352732	24.520486	-0.044485	0.201530	2.128210	0.000000	0.004366	0.000000	-0.000002	-0.000000	0.000000	0.000000
62.765186	12.391402	24.390848	-0.071523	0.187384	2.129665	0.000000	0.004366	0.000000	-0.000002	-0.000000	0.000000	0.000000
63.098520	12.448096	24.270640	-0.098561	0.173238	2.131121	0.000000	0.004366	0.000000	-0.000002	-0.000000	0.000000	0.000000
63.433103	12.523131	24.159466	-0.125701	0.159039	2.132582	0.000000	0.004366	0.000000	-0.000002	-0.000000	0.000000	0.000000
63.730426	12.605049	24.068646	-0.118906	0.087396	2.133880	0.000000	-0.000867	0.000000	-0.000003	-0.000000	0.000000	0.000000
64.171386	12.870386	23.726489	-0.485105	0.685588	2.147039	0.000000	0.060603	0.000000	-0.000003	-0.000000	0.000000	0.000000
64.612346	13.467198	22.868566	-0.873467	1.252587	2.187429	0.000000	0.122764	0.000000	-0.000003	-0.000000	0.000000	0.000000
65.053306	14.422749	21.533913	-1.301735	1.762594	2.255512	0.000000	0.186322	0.000000	-0.000003	-0.000000	0.000000	0.000000
65.494266	15.780698	19.783255	-1.789476	2.192404	2.352062	0.000000	0.252002	0.000000	-0.000003	-0.000000	0.000000	0.000000
65.940226	17.626251	17.671466	-2.363666	2.523219	2.479751	0.000000	0.320955	0.000000	-0.000003	-0.000001	0.000000	0.000000
66.489286	19.991921	15.308965	-1.919412	1.804989	2.635609	0.000000	0.245933	0.000000	-0.000004	-0.000000	0.000000	0.000000
67.038346	21.791958	13.660364	-1.339580	1.215324	2.749015	0.000000	0.166550	0.000000	-0.000004	-0.000000	0.000000	0.000000
67.587406	22.899217	12.608235	-0.665127	0.712224	2.817958	0.000000	0.084212	0.000000	-0.000004	-0.000000	0.000000	0.000000
68.136466	23.235486	12.077637	0.056307	0.259855	2.841215	0.000000	0.000380	0.000000	-0.000004	-0.000000	0.000000	0.000000
68.435038	23.241953	11.911629	-0.017255	0.264592	2.843545	0.000000	0.007804	0.000000	-0.000004	-0.000000	0.000000	0.000000
68.768372	23.258238	11.745215	-0.031601	0.234649	2.846146	0.000000	0.007804	0.000000	-0.000004	-0.000000	0.000000	0.000000
69.101705	23.284088	11.598764	-0.045947	0.204706	2.848748	0.000000	0.007804	0.000000	-0.000004	-0.000000	0.000000	0.000000
69.436288	23.319652	11.471837	-0.060347	0.174651	2.851359	0.000000	0.007804	0.000000	-0.000004	-0.000000	0.000000	0.000000
69.733611	23.359342	11.375923	-0.134179	0.177667	2.853679	0.000000	0.015260	0.000000	-0.000004	-0.000000	0.000000	0.000000
70.282671	23.105510	11.408583	0.593745	-0.237502	2.838874	0.000000	-0.069112	0.000000	-0.000004	0.000000	0.000000	0.000000
