#ParticleID	Turn	x[m]	xp	y[m]	yp	z[m]	dE[GeV]# s	beta_x	beta_y	alpha_x	alpha_y	D_x	D_y	D_px	D_py	orbit_x	orbit_px	orbit_y	orbit_py
0.300000	11.810904	25.030883	-0.010693	-0.027157	2.618080	0.000000	0.000025	0.000000	-0.000001	0.000001	0.000000	0.000000
0.601250	11.825031	25.050873	-0.036202	-0.039201	2.618087	0.000000	0.000025	0.000000	-0.000001	0.000001	0.000000	0.000000
0.898573	11.854044	25.077718	-0.032309	-0.112586	2.618094	0.000000	-0.006395	0.000000	-0.000000	0.000001	0.000000	0.000000
1.339533	12.034632	24.898824	-0.378777	0.516736	2.631566	0.000000	0.067562	0.000000	0.000000	0.000001	0.000000	0.000000
1.780493	12.527224	24.173204	-0.742551	1.122546	2.677790	0.000000	0.142288	0.000000	0.000001	0.000001	0.000000	0.000000
2.221453	13.354326	22.933876	-1.140249	1.677282	2.757289	0.000000	0.218635	0.000000	0.000002	0.000002	0.000000	0.000000
2.662413	14.553725	21.237226	-1.590043	2.155703	2.870972	0.000000	0.297472	0.000000	0.000002	0.000002	0.000000	0.000000
3.108373	16.200956	19.135571	-2.116769	2.537174	3.021993	0.000000	0.380186	0.000000	0.000003	0.000002	0.000000	0.000000
3.657433	18.313266	16.775083	-1.707594	1.787346	3.205465	0.000000	0.287148	0.000000	0.000004	0.000002	0.000000	0.000000
4.206493	19.906956	15.163674	-1.177803	1.164828	3.336379	0.000000	0.189017	0.000000	0.000005	0.000001	0.000000	0.000000
4.755553	20.869457	14.186566	-0.564818	0.625278	3.412411	0.000000	0.087533	0.000000	0.000005	0.000001	0.000000	0.000000
5.304613	21.132783	13.774163	0.088064	0.130264	3.432214	0.000000	-0.015504	0.000000	0.000006	0.000001	0.000000	0.000000
5.603185	21.117389	13.681537	0.018707	0.143976	3.430262	0.000000	-0.006536	0.000000	0.000006	0.000001	0.000000	0.000000
5.936519	21.110182	13.593843	0.002916	0.119107	3.428083	0.000000	-0.006536	0.000000	0.000007	0.000001	0.000000	0.000000
6.269852	21.113501	13.522728	-0.012874	0.094239	3.425904	0.000000	-0.006536	0.000000	0.000007	0.000001	0.000000	0.000000
6.604435	21.127419	13.468018	-0.028723	0.069277	3.423717	0.000000	-0.006536	0.000000	0.000007	0.000001	0.000000	0.000000
6.901758	21.148686	13.433418	-0.098062	0.082191	3.421773	0.000000	0.002403	0.000000	0.000008	0.000001	0.000000	0.000000
7.450818	20.895946	13.604029	0.555653	-0.394757	3.394890	0.000000	-0.100180	0.000000	0.000008	0.000001	0.000000	0.000000
7.999878	19.942752	14.310660	1.170118	-0.899824	3.312089	0.000000	-0.200987	0.000000	0.000009	0.000001	0.000000	0.000000
8.548938	18.356433	15.603645	1.701933	-1.468983	3.174837	0.000000	-0.298228	0.000000	0.000009	0.000000	0.000000	0.000000
9.097998	16.249038	17.575080	2.113532	-2.142774	2.985569	0.000000	-0.390180	0.000000	0.000009	-0.000000	0.000000	0.000000
9.543958	14.604906	19.331716	1.586301	-1.779575	2.829872	0.000000	-0.308471	0.000000	0.000009	0.000000	0.000000	0.000000
9.984918	13.409092	20.711092	1.135830	-1.336641	2.711095	0.000000	-0.230760	0.000000	0.000009	0.000000	0.000000	0.000000
10.425878	12.586259	21.671423	0.737252	-0.832891	2.625974	0.000000	-0.155676	0.000000	0.000009	0.000001	0.000000	0.000000
10.866838	12.098815	22.169016	0.372357	-0.291245	2.573540	0.000000	-0.082366	0.000000	0.000010	0.000001	0.000000	0.000000
11.309048	11.924356	22.180706	0.053609	0.209204	2.553176	0.000000	-0.016254	0.000000	0.000010	0.000001	0.000000	0.000000
11.606371	11.899912	22.060464	0.028603	0.195212	2.548343	0.000000	-0.016254	0.000000	0.000010	0.000001	0.000000	0.000000
12.086371	11.891830	21.883902	-0.011766	0.172625	2.540541	0.000000	-0.016254	0.000000	0.000011	0.000001	0.000000	0.000000
12.566371	11.922503	21.729024	-0.052136	0.150037	2.532738	0.000000	-0.016254	0.000000	0.000011	0.000001	0.000000	0.000000
13.046371	11.991931	21.595831	-0.092505	0.127450	2.524936	0.000000	-0.016254	0.000000	0.000012	0.000001	0.000000	0.000000
13.526371	12.100113	21.484321	-0.132875	0.104862	2.517134	0.000000	-0.016254	0.000000	0.000013	0.000001	0.000000	0.000000
14.007621	12.247483	21.394290	-0.173349	0.082216	2.509311	0.000000	-0.016254	0.000000	0.000013	0.000001	0.000000	0.000000
14.304943	12.357999	21.349560	-0.168053	0.015876	2.504478	0.000000	-0.022395	0.000000	0.000013	0.000001	0.000000	0.000000
14.745903	12.664726	21.101893	-0.530173	0.543640	2.510235	0.000000	0.048534	0.000000	0.000014	0.000001	0.000000	0.000000
15.186863	13.300247	20.397952	-0.916516	1.046669	2.547361	0.000000	0.120015	0.000000	0.000015	0.000002	0.000000	0.000000
15.627823	14.293599	19.269763	-1.344731	1.502076	2.616278	0.000000	0.192863	0.000000	0.000016	0.000002	0.000000	0.000000
16.068783	15.690164	17.768661	-1.834383	1.889139	2.717771	0.000000	0.267908	0.000000	0.000017	0.000003	0.000000	0.000000
16.514743	17.577405	15.941440	-2.412601	2.190992	2.854691	0.000000	0.346466	0.000000	0.000018	0.000003	0.000000	0.000000
17.063803	20.001337	13.901202	-1.975958	1.546817	3.021187	0.000000	0.259124	0.000000	0.000020	0.000002	0.000000	0.000000
17.612863	21.865838	12.504055	-1.399743	1.012818	3.138393	0.000000	0.167185	0.000000	0.000021	0.000002	0.000000	0.000000
18.161923	23.039208	11.650486	-0.724657	0.550960	3.204230	0.000000	0.072281	0.000000	0.000022	0.000001	0.000000	0.000000
18.710983	23.438566	11.279694	0.001615	0.128346	3.217530	0.000000	-0.023905	0.000000	0.000022	0.000000	0.000000	0.000000
19.009556	23.477981	11.193558	-0.072398	0.130683	3.212902	0.000000	-0.015500	0.000000	0.000022	0.000000	0.000000	0.000000
19.342889	23.531004	11.116532	-0.086670	0.100395	3.207735	0.000000	-0.015500	0.000000	0.000022	0.000000	0.000000	0.000000
19.676223	23.593542	11.059697	-0.100942	0.070108	3.202569	0.000000	-0.015500	0.000000	0.000022	0.000000	0.000000	0.000000
20.010806	23.666175	11.022819	-0.232523	0.094320	3.197402	0.000000	0.000342	0.000000	0.000023	0.000001	0.000000	0.000000
20.308129	23.808381	10.974822	-0.307961	0.095777	3.197504	0.000000	0.008695	0.000000	0.000023	0.000001	0.000000	0.000000
20.857189	23.735920	11.091716	0.439153	-0.309931	3.176055	0.000000	-0.086710	0.000000	0.000023	-0.000000	0.000000	0.000000
21.406249	22.855286	11.663560	1.155247	-0.737714	3.102569	0.000000	-0.180577	0.000000	0.000023	-0.000001	0.000000	0.000000
21.955309	21.228682	12.731088	1.789740	-1.218043	2.978349	0.000000	-0.271241	0.000000	0.000022	-0.000002	0.000000	0.000000
22.504369	18.971004	14.370335	2.297814	-1.785131	2.805598	0.000000	-0.357094	0.000000	0.000021	-0.000002	0.000000	0.000000
22.950329	17.191705	15.842118	1.706083	-1.501203	2.663645	0.000000	-0.279875	0.000000	0.000020	-0.000002	0.000000	0.000000
23.391289	15.916402	17.015581	1.196995	-1.149825	2.556556	0.000000	-0.206298	0.000000	0.000020	-0.000001	0.000000	0.000000
23.832249	15.064353	17.854815	0.742594	-0.746131	2.481364	0.000000	-0.135070	0.000000	0.000019	-0.000001	0.000000	0.000000
24.273209	14.596631	18.321637	0.322120	-0.308489	2.437210	0.000000	-0.065381	0.000000	0.000019	-0.000000	0.000000	0.000000
24.715418	14.491987	18.394561	-0.048192	0.098020	2.423591	0.000000	-0.002379	0.000000	0.000019	0.000000	0.000000	0.000000
25.012741	14.526759	18.341126	-0.068756	0.081701	2.422884	0.000000	-0.002379	0.000000	0.000019	0.000000	0.000000	0.000000
25.346075	14.580281	18.292757	-0.091810	0.063405	2.422091	0.000000	-0.002379	0.000000	0.000019	0.000000	0.000000	0.000000
25.679408	14.649172	18.256585	-0.114865	0.045110	2.421298	0.000000	-0.002379	0.000000	0.000019	0.000000	0.000000	0.000000
26.013991	14.733480	18.232913	-0.018479	-0.121168	2.420477	0.000000	-0.022015	0.000000	0.000019	0.000000	0.000000	0.000000
26.311314	14.750470	18.309885	-0.002500	-0.182608	2.413932	0.000000	-0.027934	0.000000	0.000019	0.000000	0.000000	0.000000
26.752274	14.934401	18.272368	-0.416196	0.267366	2.416727	0.000000	0.040622	0.000000	0.000019	0.000001	0.000000	0.000000
27.193234	15.490153	17.841878	-0.848908	0.705174	2.449825	0.000000	0.109641	0.000000	0.000020	0.000001	0.000000	0.000000
27.634194	16.443119	17.038004	-1.320404	1.110898	2.513603	0.000000	0.179908	0.000000	0.000020	0.000002	0.000000	0.000000
28.075154	17.836835	15.897320	-1.852226	1.466076	2.608789	0.000000	0.252225	0.000000	0.000021	0.000002	0.000000	0.000000
28.521114	19.759189	14.454544	-2.473639	1.755461	2.738069	0.000000	0.327857	0.000000	0.000022	0.000003	0.000000	0.000000
29.070174	22.202513	12.847044	-1.950028	1.189550	2.895412	0.000000	0.244442	0.000000	0.000023	0.000002	0.000000	0.000000
29.619234	23.991346	11.811087	-1.288676	0.708368	3.005697	0.000000	0.156691	0.000000	0.000024	0.000001	0.000000	0.000000
30.168294	24.999334	11.272885	-0.536299	0.277642	3.066966	0.000000	0.066160	0.000000	0.000025	0.000000	0.000000	0.000000
30.717354	25.155278	11.194103	0.253960	-0.133309	3.078133	0.000000	-0.025544	0.000000	0.000025	-0.000000	0.000000	0.000000
31.015927	25.046536	11.264295	0.175958	-0.131028	3.072908	0.000000	-0.017503	0.000000	0.000025	-0.000000	0.000000	0.000000
31.349260	24.933805	11.361681	0.162237	-0.161128	3.067073	0.000000	-0.017503	0.000000	0.000024	-0.000000	0.000000	0.000000
31.682593	24.830220	11.479133	0.148517	-0.191228	3.061239	0.000000	-0.017503	0.000000	0.000024	-0.000000	0.000000	0.000000
32.017177	24.735446	11.617205	0.134745	-0.221441	3.055383	0.000000	-0.017503	0.000000	0.000024	-0.000000	0.000000	0.000000
32.314499	24.658959	11.756866	0.058090	-0.217577	3.050180	0.000000	-0.009535	0.000000	0.000024	-0.000000	0.000000	0.000000
32.863559	24.172670	12.234987	0.822343	-0.658362	3.020058	0.000000	-0.100026	0.000000	0.000024	-0.000001	0.000000	0.000000
33.412619	22.874224	13.219900	1.528509	-1.146042	2.940666	0.000000	-0.188743	0.000000	0.000023	-0.000002	0.000000	0.000000
33.961679	20.855337	14.781757	2.126709	-1.715351	2.813413	0.000000	-0.274112	0.000000	0.000022	-0.000003	0.000000	0.000000
34.510739	18.258614	17.031807	2.574689	-2.406841	2.640554	0.000000	-0.354619	0.000000	0.000020	-0.000003	0.000000	0.000000
34.956699	16.239532	19.044408	1.969025	-2.087279	2.498754	0.000000	-0.281679	0.000000	0.000019	-0.000003	0.000000	0.000000
35.397659	14.733915	20.709092	1.458335	-1.673491	2.389929	0.000000	-0.212375	0.000000	0.000018	-0.000002	0.000000	0.000000
35.838619	13.647714	21.973751	1.014272	-1.183561	2.311103	0.000000	-0.145490	0.000000	0.000017	-0.000002	0.000000	0.000000
36.279579	12.931305	22.780843	0.616549	-0.639780	2.261378	0.000000	-0.080262	0.000000	0.000016	-0.000001	0.000000	0.000000
36.721789	12.551262	23.093955	0.277663	-0.123568	2.240159	0.000000	-0.021440	0.000000	0.000015	-0.000001	0.000000	0.000000
37.019112	12.393737	23.171321	0.252148	-0.136639	2.233785	0.000000	-0.021440	0.000000	0.000015	-0.000001	0.000000	0.000000
37.352445	12.235173	23.267299	0.223543	-0.151294	2.226638	0.000000	-0.021440	0.000000	0.000015	-0.000001	0.000000	0.000000
37.685779	12.095680	23.373046	0.194938	-0.165948	2.219492	0.000000	-0.021440	0.000000	0.000014	-0.000001	0.000000	0.000000
38.020362	11.974841	23.489014	0.166225	-0.180657	2.212319	0.000000	-0.021440	0.000000	0.000014	-0.000001	0.000000	0.000000
38.317684	11.883582	23.600327	0.169848	-0.251596	2.205944	0.000000	-0.026849	0.000000	0.000014	-0.000001	0.000000	0.000000
38.758644	11.885281	23.560807	-0.173717	0.340878	2.208034	0.000000	0.036336	0.000000	0.000013	-0.000001	0.000000	0.000000
39.199604	12.192318	23.003640	-0.525218	0.917843	2.238051	0.000000	0.099935	0.000000	0.000013	-0.000000	0.000000	0.000000
39.640564	12.818721	21.954179	-0.900715	1.453046	2.296336	0.000000	0.164672	0.000000	0.000013	-0.000000	0.000000	0.000000
40.081524	13.793109	20.460173	-1.317363	1.922137	2.383553	0.000000	0.231284	0.000000	0.000013	0.000000	0.000000	0.000000
40.527484	15.177575	18.567024	-1.798026	2.305057	2.502168	0.000000	0.300936	0.000000	0.000013	0.000001	0.000000	0.000000
41.076544	16.944269	16.439572	-1.400596	1.592530	2.646868	0.000000	0.225369	0.000000	0.000013	0.000000	0.000000	0.000000
41.625604	18.217295	15.028053	-0.904234	0.993435	2.748916	0.000000	0.145805	0.000000	0.000013	-0.000000	0.000000	0.000000
42.174664	18.906732	14.231928	-0.344002	0.465101	2.806504	0.000000	0.063654	0.000000	0.000013	-0.000001	0.000000	0.000000
42.723724	18.963884	13.994491	0.240529	-0.030105	2.818609	0.000000	-0.019626	0.000000	0.000013	-0.000001	0.000000	0.000000
43.022297	18.854710	13.997006	0.174666	-0.014880	2.814948	0.000000	-0.012262	0.000000	0.000012	-0.000001	0.000000	0.000000
43.502297	18.699623	14.027755	0.148432	-0.049181	2.809063	0.000000	-0.012262	0.000000	0.000012	-0.000001	0.000000	0.000000
43.982297	18.569722	14.091433	0.122197	-0.083481	2.803178	0.000000	-0.012262	0.000000	0.000011	-0.000001	0.000000	0.000000
44.462297	18.465005	14.188039	0.095963	-0.117782	2.797292	0.000000	-0.012262	0.000000	0.000011	-0.000001	0.000000	0.000000
44.942297	18.385473	14.317574	0.069728	-0.152082	2.791407	0.000000	-0.012262	0.000000	0.000010	-0.000001	0.000000	0.000000
45.423547	18.331245	14.480324	-0.047398	-0.114728	2.785524	0.000000	0.001539	0.000000	0.000010	-0.000001	0.000000	0.000000
45.720870	18.364263	14.554732	-0.111632	-0.097506	2.785982	0.000000	0.008818	0.000000	0.000010	-0.000001	0.000000	0.000000
46.269930	18.177633	14.943280	0.449528	-0.614332	2.768250	0.000000	-0.073314	0.000000	0.000009	-0.000001	0.000000	0.000000
46.818990	17.388650	15.919920	0.978936	-1.174916	2.705714	0.000000	-0.154145	0.000000	0.000008	-0.000002	0.000000	0.000000
47.368050	16.053043	17.554216	1.439197	-1.819187	2.599484	0.000000	-0.232242	0.000000	0.000007	-0.000002	0.000000	0.000000
47.917110	14.265153	19.962575	1.797800	-2.593035	2.451443	0.000000	-0.306220	0.000000	0.000006	-0.000002	0.000000	0.000000
48.363070	12.873864	22.103779	1.333015	-2.188117	2.330175	0.000000	-0.237918	0.000000	0.000005	-0.000002	0.000000	0.000000
48.804030	11.878461	23.818156	0.932902	-1.684917	2.239724	0.000000	-0.172723	0.000000	0.000004	-0.000002	0.000000	0.000000
49.244990	11.215870	25.053121	0.575410	-1.105054	2.177560	0.000000	-0.109495	0.000000	0.000004	-0.000002	0.000000	0.000000
49.685950	10.855817	25.752484	0.244207	-0.474912	2.142976	0.000000	-0.047515	0.000000	0.000003	-0.000002	0.000000	0.000000
50.128160	10.781978	25.884142	-0.049516	0.113315	2.135589	0.000000	0.008688	0.000000	0.000002	-0.000002	0.000000	0.000000
50.425482	10.819641	25.820219	-0.077159	0.101681	2.138172	0.000000	0.008688	0.000000	0.000002	-0.000002	0.000000	0.000000
50.758816	10.881411	25.756779	-0.108151	0.088637	2.141069	0.000000	0.008688	0.000000	0.000001	-0.000002	0.000000	0.000000
51.092149	10.963842	25.702035	-0.139142	0.075594	2.143965	0.000000	0.008688	0.000000	0.000001	-0.000002	0.000000	0.000000
51.426732	11.067135	25.656351	-0.080466	-0.145635	2.146851	0.000000	-0.008729	0.000000	0.000000	-0.000002	0.000000	0.000000
51.724055	11.123023	25.746470	-0.080229	-0.220608	2.144256	0.000000	-0.013987	0.000000	-0.000000	-0.000002	0.000000	0.000000
52.165015	11.339022	25.654579	-0.411466	0.428204	2.151677	0.000000	0.047676	0.000000	-0.000001	-0.000002	0.000000	0.000000
52.605975	11.854299	24.996926	-0.761502	1.057533	2.186383	0.000000	0.109883	0.000000	-0.000001	-0.000002	0.000000	0.000000
53.046935	12.692397	23.803434	-1.146330	1.638744	2.248769	0.000000	0.173341	0.000000	-0.000002	-0.000002	0.000000	0.000000
53.487895	13.891606	22.128407	-1.583529	2.145395	2.339547	0.000000	0.238773	0.000000	-0.000003	-0.000002	0.000000	0.000000
53.933855	15.527273	20.023012	-2.097303	2.555769	2.461253	0.000000	0.307323	0.000000	-0.000004	-0.000002	0.000000	0.000000
54.482915	17.633169	17.653876	-1.715451	1.784595	2.609812	0.000000	0.233019	0.000000	-0.000004	-0.000002	0.000000	0.000000
55.031975	19.250323	16.057229	-1.212429	1.140534	2.716378	0.000000	0.154582	0.000000	-0.000005	-0.000001	0.000000	0.000000
55.581035	20.264507	15.119346	-0.623766	0.577711	2.779060	0.000000	0.073403	0.000000	-0.000006	-0.000001	0.000000	0.000000
56.130095	20.604085	14.773422	0.008956	0.056037	2.796746	0.000000	-0.009078	0.000000	-0.000007	-0.000001	0.000000	0.000000
56.428668	20.635222	14.722997	-0.059402	0.074248	2.796218	0.000000	-0.001770	0.000000	-0.000007	-0.000001	0.000000	0.000000
56.762001	20.680227	14.681087	-0.075613	0.051483	2.795628	0.000000	-0.001770	0.000000	-0.000007	-0.000001	0.000000	0.000000
57.095334	20.736039	14.654353	-0.091823	0.028718	2.795039	0.000000	-0.001770	0.000000	-0.000008	-0.000001	0.000000	0.000000
57.429918	20.802928	14.642782	-0.108095	0.005867	2.794447	0.000000	-0.001770	0.000000	-0.000008	-0.000001	0.000000	0.000000
57.727240	20.871505	14.645330	-0.177091	0.023830	2.793921	0.000000	0.005531	0.000000	-0.000008	-0.000001	0.000000	0.000000
58.276300	20.709920	14.900359	0.469643	-0.491054	2.774320	0.000000	-0.076828	0.000000	-0.000009	-0.000001	0.000000	0.000000
58.825360	19.852237	15.736565	1.083204	-1.040914	2.709806	0.000000	-0.157823	0.000000	-0.000009	-0.000001	0.000000	0.000000
59.374420	18.359039	17.213509	1.620252	-1.664916	2.601525	0.000000	-0.236020	0.000000	-0.000009	-0.000000	0.000000	0.000000
59.923480	16.335796	19.436392	2.042855	-2.407506	2.451397	0.000000	-0.310030	0.000000	-0.000010	0.000000	0.000000	0.000000
60.369440	14.752248	21.412087	1.520596	-2.004001	2.328426	0.000000	-0.241751	0.000000	-0.000010	-0.000000	0.000000	0.000000
60.810400	13.613333	22.967846	1.072010	-1.510691	2.236270	0.000000	-0.176624	0.000000	-0.000010	-0.000000	0.000000	0.000000
61.251360	12.847024	24.056457	0.672402	-0.948646	2.172363	0.000000	-0.113508	0.000000	-0.000010	-0.000001	0.000000	0.000000
61.692320	12.418311	24.628391	0.303513	-0.343438	2.135977	0.000000	-0.051684	0.000000	-0.000010	-0.000001	0.000000	0.000000
62.134530	12.307660	24.657082	-0.021425	0.216869	2.126702	0.000000	0.004335	0.000000	-0.000011	-0.000001	0.000000	0.000000
62.431853	12.327586	24.531875	-0.045594	0.204244	2.127991	0.000000	0.004335	0.000000	-0.000011	-0.000001	0.000000	0.000000
62.765186	12.367014	24.400431	-0.072689	0.190089	2.129436	0.000000	0.004335	0.000000	-0.000011	-0.000001	0.000000	0.000000
63.098520	12.424505	24.278423	-0.099785	0.175935	2.130881	0.000000	0.004335	0.000000	-0.000012	-0.000001	0.000000	0.000000
63.433103	12.500378	24.165447	-0.126983	0.161727	2.132332	0.000000	0.004335	0.000000	-0.000012	-0.000001	0.000000	0.000000
63.730426	12.583074	24.073030	-0.120290	0.090060	2.133621	0.000000	-0.000898	0.000000	-0.000013	-0.000001	0.000000	0.000000
64.171386	12.849423	23.728494	-0.486024	0.688299	2.146764	0.000000	0.060565	0.000000	-0.000013	-0.000001	0.000000	0.000000
64.612346	13.446855	22.868206	-0.873962	1.255221	2.187137	0.000000	0.122718	0.000000	-0.000014	-0.000002	0.000000	0.000000
65.053306	14.402666	21.531308	-1.301829	1.765032	2.255198	0.000000	0.186268	0.000000	-0.000015	-0.000002	0.000000	0.000000
65.494266	15.760522	19.778628	-1.789173	2.194535	2.351723	0.000000	0.251940	0.000000	-0.000016	-0.000003	0.000000	0.000000
65.940226	17.605621	17.665114	-2.362950	2.524940	2.479384	0.000000	0.320883	0.000000	-0.000017	-0.000003	0.000000	0.000000
66.489286	19.970951	15.300783	-1.919514	1.806622	2.635207	0.000000	0.245874	0.000000	-0.000018	-0.000002	0.000000	0.000000
67.038346	21.771548	13.650383	-1.340494	1.216986	2.748585	0.000000	0.166504	0.000000	-0.000020	-0.000002	0.000000	0.000000
67.587406	22.880228	12.596359	-0.666787	0.714033	2.817508	0.000000	0.084181	0.000000	-0.000020	-0.000001	0.000000	0.000000
68.136466	23.218679	12.063637	0.054017	0.261939	2.840752	0.000000	0.000364	0.000000	-0.000021	-0.000000	0.000000	0.000000
68.435038	23.226495	11.896422	-0.019519	0.266583	2.843078	0.000000	0.007788	0.000000	-0.000021	-0.000001	0.000000	0.000000
68.768372	23.244294	11.728703	-0.033876	0.236572	2.845674	0.000000	0.007788	0.000000	-0.000021	-0.000001	0.000000	0.000000
69.101705	23.271663	11.580992	-0.048233	0.206562	2.848270	0.000000	0.007788	0.000000	-0.000021	-0.000001	0.000000	0.000000
69.436288	23.308761	11.452846	-0.062644	0.176438	2.850875	0.000000	0.007788	0.000000	-0.000022	-0.000001	0.000000	0.000000
69.733611	23.349819	11.355887	-0.136469	0.179346	2.853191	0.000000	0.015244	0.000000	-0.000022	-0.000001	0.000000	0.000000
70.282671	23.098654	11.386390	0.591207	-0.235228	2.838381	0.000000	-0.069113	0.000000	-0.000022	0.000000	0.000000	0.000000
