#ParticleID	Turn	x[m]	xp	y[m]	yp	z[m]	dE[GeV]# s	beta_x	beta_y	alpha_x	alpha_y	D_x	D_y	D_px	D_py	orbit_x	orbit_px	orbit_y	orbit_py
0.300000	11.806725	25.047306	-0.010301	-0.026954	2.618170	0.000000	-0.000009	0.000000	-0.000002	0.000002	0.000000	0.000000
0.601250	11.820619	25.067172	-0.035819	-0.038990	2.618167	0.000000	-0.000009	0.000000	-0.000001	0.000002	0.000000	0.000000
0.898573	11.849406	25.093889	-0.031945	-0.112407	2.618164	0.000000	-0.006430	0.000000	-0.000001	0.000002	0.000000	0.000000
1.339533	12.029624	24.914648	-0.378299	0.517339	2.631621	0.000000	0.067528	0.000000	0.000000	0.000002	0.000000	0.000000
1.780493	12.521736	24.188320	-0.741936	1.123545	2.677830	0.000000	0.142256	0.000000	0.000001	0.000002	0.000000	0.000000
2.221453	13.348225	22.947952	-1.139469	1.678632	2.757316	0.000000	0.218604	0.000000	0.000002	0.000002	0.000000	0.000000
2.662413	14.546851	21.249979	-1.589062	2.157342	2.870984	0.000000	0.297441	0.000000	0.000003	0.000002	0.000000	0.000000
3.108373	16.193101	19.146760	-2.115541	2.539028	3.021991	0.000000	0.380156	0.000000	0.000003	0.000002	0.000000	0.000000
3.657433	18.304169	16.784491	-1.706575	1.788755	3.205447	0.000000	0.287118	0.000000	0.000004	0.000002	0.000000	0.000000
4.206493	19.896889	15.171733	-1.177065	1.165891	3.336344	0.000000	0.188988	0.000000	0.000005	0.000002	0.000000	0.000000
4.755553	20.858760	14.193613	-0.564413	0.626070	3.412361	0.000000	0.087505	0.000000	0.000006	0.000001	0.000000	0.000000
5.304613	21.121839	13.780460	0.088106	0.130844	3.432149	0.000000	-0.015530	0.000000	0.000007	0.000001	0.000000	0.000000
5.603185	21.106405	13.687478	0.018771	0.144578	3.430189	0.000000	-0.006563	0.000000	0.000007	0.000001	0.000000	0.000000
5.936519	21.099158	13.599380	0.002972	0.119715	3.428001	0.000000	-0.006563	0.000000	0.000008	0.000001	0.000000	0.000000
6.269852	21.102442	13.527857	-0.012827	0.094853	3.425813	0.000000	-0.006563	0.000000	0.000008	0.000001	0.000000	0.000000
6.604435	21.116331	13.472734	-0.028684	0.069898	3.423617	0.000000	-0.006563	0.000000	0.000009	0.000001	0.000000	0.000000
6.901758	21.137578	13.437763	-0.098001	0.082829	3.421665	0.000000	0.002377	0.000000	0.000009	0.000001	0.000000	0.000000
7.450818	20.884975	13.607737	0.555343	-0.394229	3.394769	0.000000	-0.100203	0.000000	0.000010	0.000001	0.000000	0.000000
7.999878	19.932315	14.313832	1.169460	-0.899368	3.311955	0.000000	-0.201006	0.000000	0.000010	0.000001	0.000000	0.000000
8.548938	18.346889	15.606342	1.700973	-1.468567	3.174694	0.000000	-0.298243	0.000000	0.000010	0.000000	0.000000	0.000000
9.097998	16.240685	17.577328	2.112337	-2.142369	2.985420	0.000000	-0.390190	0.000000	0.000010	0.000000	0.000000	0.000000
9.543958	14.597503	19.333552	1.585359	-1.779059	2.829717	0.000000	-0.308485	0.000000	0.000011	0.000000	0.000000	0.000000
9.984918	13.402425	20.712433	1.135096	-1.336039	2.710934	0.000000	-0.230777	0.000000	0.000011	0.000001	0.000000	0.000000
10.425878	12.580161	21.672205	0.736692	-0.832230	2.625804	0.000000	-0.155698	0.000000	0.000011	0.000001	0.000000	0.000000
10.866838	12.093144	22.169200	0.371946	-0.290556	2.573360	0.000000	-0.082392	0.000000	0.000011	0.000001	0.000000	0.000000
11.309048	11.918990	22.180280	0.053313	0.209892	2.552982	0.000000	-0.016284	0.000000	0.000012	0.000001	0.000000	0.000000
11.606371	11.894726	22.059630	0.028297	0.195896	2.548140	0.000000	-0.016284	0.000000	0.000012	0.000001	0.000000	0.000000
12.086371	11.886946	21.882415	-0.012089	0.173302	2.540323	0.000000	-0.016284	0.000000	0.000013	0.000001	0.000000	0.000000
12.566371	11.917937	21.726890	-0.052476	0.150708	2.532506	0.000000	-0.016284	0.000000	0.000014	0.000001	0.000000	0.000000
13.046371	11.987700	21.593055	-0.092862	0.128114	2.524689	0.000000	-0.016284	0.000000	0.000014	0.000001	0.000000	0.000000
13.526371	12.096233	21.480911	-0.133248	0.105520	2.516872	0.000000	-0.016284	0.000000	0.000015	0.000001	0.000000	0.000000
14.007621	12.243971	21.390251	-0.173740	0.082867	2.509034	0.000000	-0.016284	0.000000	0.000016	0.000001	0.000000	0.000000
14.304943	12.354722	21.345136	-0.168463	0.016535	2.504192	0.000000	-0.022424	0.000000	0.000016	0.000001	0.000000	0.000000
14.745903	12.661783	21.096944	-0.530523	0.544166	2.509934	0.000000	0.048496	0.000000	0.000017	0.000002	0.000000	0.000000
15.186863	13.297591	20.392607	-0.916820	1.047038	2.547042	0.000000	0.119970	0.000000	0.000018	0.000002	0.000000	0.000000
15.627823	14.291196	19.264170	-1.345004	1.502270	2.615936	0.000000	0.192809	0.000000	0.000019	0.000003	0.000000	0.000000
16.068783	15.687993	17.762976	-1.834638	1.889150	2.717404	0.000000	0.267845	0.000000	0.000020	0.000003	0.000000	0.000000
16.514743	17.575457	15.935828	-2.412849	2.190818	2.854293	0.000000	0.346393	0.000000	0.000022	0.000004	0.000000	0.000000
17.063803	19.999727	13.895706	-1.976319	1.546775	3.020753	0.000000	0.259064	0.000000	0.000024	0.000003	0.000000	0.000000
17.612863	21.864675	12.498534	-1.400192	1.012906	3.137930	0.000000	0.167140	0.000000	0.000025	0.000002	0.000000	0.000000
18.161923	23.038573	11.644794	-0.725163	0.551184	3.203746	0.000000	0.072252	0.000000	0.000026	0.000001	0.000000	0.000000
18.710983	23.438501	11.273676	0.001089	0.128721	3.217034	0.000000	-0.023918	0.000000	0.000027	0.000001	0.000000	0.000000
19.009556	23.478229	11.187331	-0.072923	0.131024	3.212402	0.000000	-0.015515	0.000000	0.000027	0.000001	0.000000	0.000000
19.342889	23.531602	11.110084	-0.087196	0.100717	3.207230	0.000000	-0.015515	0.000000	0.000027	0.000001	0.000000	0.000000
19.676223	23.594490	11.053042	-0.101469	0.070409	3.202058	0.000000	-0.015515	0.000000	0.000027	0.000001	0.000000	0.000000
20.010806	23.667476	11.015968	-0.233057	0.094569	3.196887	0.000000	0.000324	0.000000	0.000027	0.000001	0.000000	0.000000
20.308129	23.810000	10.967830	-0.308499	0.095987	3.196983	0.000000	0.008676	0.000000	0.000028	0.000001	0.000000	0.000000
20.857189	23.738097	11.084384	0.438680	-0.309519	3.175528	0.000000	-0.086713	0.000000	0.000028	-0.000000	0.000000	0.000000
21.406249	22.857931	11.655653	1.154872	-0.737072	3.102045	0.000000	-0.180563	0.000000	0.000028	-0.000001	0.000000	0.000000
21.955309	21.231671	12.722329	1.789490	-1.217125	2.977837	0.000000	-0.271210	0.000000	0.000027	-0.000002	0.000000	0.000000
22.504369	18.974190	14.360388	2.297707	-1.783872	2.805109	0.000000	-0.357047	0.000000	0.000026	-0.000003	0.000000	0.000000
22.950329	17.195009	15.831150	1.705926	-1.500181	2.663174	0.000000	-0.279840	0.000000	0.000025	-0.000002	0.000000	0.000000
23.391289	15.919867	17.003833	1.196782	-1.149085	2.556098	0.000000	-0.206275	0.000000	0.000024	-0.000001	0.000000	0.000000
23.832249	15.068034	17.842553	0.742315	-0.745708	2.480913	0.000000	-0.135059	0.000000	0.000023	-0.000001	0.000000	0.000000
24.273209	14.600592	18.309148	0.321762	-0.308401	2.436762	0.000000	-0.065381	0.000000	0.000023	-0.000000	0.000000	0.000000
24.715418	14.496306	18.382145	-0.048635	0.097800	2.423140	0.000000	-0.002389	0.000000	0.000023	0.000000	0.000000	0.000000
25.012741	14.531339	18.328843	-0.069194	0.081471	2.422430	0.000000	-0.002389	0.000000	0.000023	0.000000	0.000000	0.000000
25.346075	14.585151	18.280631	-0.092243	0.063164	2.421633	0.000000	-0.002389	0.000000	0.000023	0.000000	0.000000	0.000000
25.679408	14.654329	18.244624	-0.115292	0.044857	2.420837	0.000000	-0.002389	0.000000	0.000023	0.000000	0.000000	0.000000
26.013991	14.738920	18.221125	-0.018855	-0.121337	2.420013	0.000000	-0.022022	0.000000	0.000023	0.000000	0.000000	0.000000
26.311314	14.756132	18.298201	-0.002856	-0.182758	2.413465	0.000000	-0.027939	0.000000	0.000023	0.000000	0.000000	0.000000
26.752274	14.940440	18.260955	-0.416697	0.266902	2.416255	0.000000	0.040605	0.000000	0.000024	0.000001	0.000000	0.000000
27.193234	15.496705	17.831005	-0.849576	0.704418	2.449343	0.000000	0.109611	0.000000	0.000024	0.000001	0.000000	0.000000
27.634194	16.450344	17.027915	-1.321269	1.109883	2.513106	0.000000	0.179866	0.000000	0.000025	0.000002	0.000000	0.000000
28.075154	17.844924	15.888224	-1.853327	1.464849	2.608269	0.000000	0.252169	0.000000	0.000026	0.000003	0.000000	0.000000
28.521114	19.768386	14.446617	-2.475031	1.754078	2.737521	0.000000	0.327788	0.000000	0.000027	0.000003	0.000000	0.000000
29.070174	22.213112	12.840458	-1.951174	1.188477	2.894832	0.000000	0.244391	0.000000	0.000029	0.000002	0.000000	0.000000
29.619234	24.003031	11.805546	-1.289496	0.707528	3.005093	0.000000	0.156659	0.000000	0.000030	0.000001	0.000000	0.000000
30.168294	25.011713	11.268166	-0.536734	0.276975	3.066350	0.000000	0.066148	0.000000	0.000030	0.000000	0.000000	0.000000
30.717354	25.167909	11.190043	0.253939	-0.133849	3.077516	0.000000	-0.025536	0.000000	0.000030	-0.000001	0.000000	0.000000
31.015927	25.059196	11.260569	0.175914	-0.131593	3.072292	0.000000	-0.017497	0.000000	0.000030	-0.000000	0.000000	0.000000
31.349260	24.946491	11.358336	0.162200	-0.161707	3.066460	0.000000	-0.017497	0.000000	0.000030	-0.000000	0.000000	0.000000
31.682593	24.842929	11.476179	0.148487	-0.191822	3.060628	0.000000	-0.017497	0.000000	0.000030	-0.000000	0.000000	0.000000
32.017177	24.748172	11.614653	0.134722	-0.222049	3.054774	0.000000	-0.017497	0.000000	0.000030	-0.000000	0.000000	0.000000
32.314499	24.671698	11.754680	0.058043	-0.218205	3.049572	0.000000	-0.009531	0.000000	0.000029	-0.000000	0.000000	0.000000
32.863559	24.185227	12.233473	0.822716	-0.658964	3.019458	0.000000	-0.100002	0.000000	0.000029	-0.000001	0.000000	0.000000
33.412619	22.886151	13.219051	1.529277	-1.146659	2.940085	0.000000	-0.188700	0.000000	0.000028	-0.000002	0.000000	0.000000
33.961679	20.866228	14.781615	2.127817	-1.716029	2.812860	0.000000	-0.274051	0.000000	0.000026	-0.000003	0.000000	0.000000
34.510739	18.268136	17.032464	2.576059	-2.407627	2.640040	0.000000	-0.354541	0.000000	0.000025	-0.000004	0.000000	0.000000
34.956699	16.247968	19.045795	1.970101	-2.088121	2.498272	0.000000	-0.281613	0.000000	0.000023	-0.000003	0.000000	0.000000
35.397659	14.741511	20.711232	1.459169	-1.674351	2.389474	0.000000	-0.212322	0.000000	0.000022	-0.000003	0.000000	0.000000
35.838619	13.654666	21.976642	1.014904	-1.184398	2.310669	0.000000	-0.145448	0.000000	0.000020	-0.000002	0.000000	0.000000
36.279579	12.937778	22.784448	0.617006	-0.640557	2.260959	0.000000	-0.080231	0.000000	0.000020	-0.000002	0.000000	0.000000
36.721789	12.557400	23.098208	0.277981	-0.124258	2.239752	0.000000	-0.021419	0.000000	0.000019	-0.000001	0.000000	0.000000
37.019112	12.399684	23.175984	0.252474	-0.137329	2.233384	0.000000	-0.021419	0.000000	0.000019	-0.000001	0.000000	0.000000
37.352445	12.240900	23.272421	0.223878	-0.151983	2.226245	0.000000	-0.021419	0.000000	0.000018	-0.000001	0.000000	0.000000
37.685779	12.101180	23.378628	0.195282	-0.166637	2.219106	0.000000	-0.021419	0.000000	0.000018	-0.000001	0.000000	0.000000
38.020362	11.980107	23.495058	0.166579	-0.181346	2.211940	0.000000	-0.021419	0.000000	0.000017	-0.000001	0.000000	0.000000
38.317684	11.888635	23.606780	0.170222	-0.252299	2.205572	0.000000	-0.026827	0.000000	0.000017	-0.000001	0.000000	0.000000
38.758644	11.890055	23.567802	-0.173454	0.340356	2.207670	0.000000	0.036349	0.000000	0.000016	-0.000001	0.000000	0.000000
39.199604	12.196906	23.011008	-0.525055	0.917525	2.237690	0.000000	0.099938	0.000000	0.000016	-0.000000	0.000000	0.000000
39.640564	12.823206	21.961732	-0.900644	1.452947	2.295975	0.000000	0.164666	0.000000	0.000016	-0.000000	0.000000	0.000000
40.081524	13.797570	20.467714	-1.317381	1.922262	2.383187	0.000000	0.231269	0.000000	0.000016	0.000000	0.000000	0.000000
40.527484	15.182092	18.574355	-1.798133	2.305401	2.501793	0.000000	0.300912	0.000000	0.000016	0.000001	0.000000	0.000000
41.076544	16.948805	16.446637	-1.400524	1.592674	2.646483	0.000000	0.225357	0.000000	0.000017	0.000000	0.000000	0.000000
41.625604	18.221655	15.035064	-0.903988	0.993390	2.748528	0.000000	0.145805	0.000000	0.000017	-0.000000	0.000000	0.000000
42.174664	18.910734	14.239095	-0.343599	0.464862	2.806119	0.000000	0.063667	0.000000	0.000016	-0.000001	0.000000	0.000000
42.723724	18.967368	14.002032	0.241060	-0.030554	2.818235	0.000000	-0.019601	0.000000	0.000016	-0.000001	0.000000	0.000000
43.022297	18.857882	14.004800	0.175190	-0.015298	2.814581	0.000000	-0.012238	0.000000	0.000015	-0.000001	0.000000	0.000000
43.502297	18.702292	14.035942	0.148955	-0.049580	2.808708	0.000000	-0.012238	0.000000	0.000015	-0.000001	0.000000	0.000000
43.982297	18.571888	14.099993	0.122721	-0.083862	2.802834	0.000000	-0.012238	0.000000	0.000014	-0.000001	0.000000	0.000000
44.462297	18.466669	14.196956	0.096486	-0.118144	2.796960	0.000000	-0.012238	0.000000	0.000014	-0.000001	0.000000	0.000000
44.942297	18.386635	14.326829	0.070251	-0.152426	2.791086	0.000000	-0.012238	0.000000	0.000013	-0.000001	0.000000	0.000000
45.423547	18.331904	14.489901	-0.046878	-0.115005	2.785215	0.000000	0.001561	0.000000	0.000012	-0.000001	0.000000	0.000000
45.720870	18.364613	14.564469	-0.111111	-0.097745	2.785679	0.000000	0.008839	0.000000	0.000012	-0.000001	0.000000	0.000000
46.269930	18.177409	14.953444	0.450046	-0.614874	2.767962	0.000000	-0.073283	0.000000	0.000011	-0.000002	0.000000	0.000000
46.818990	17.387875	15.930863	0.979414	-1.175799	2.705446	0.000000	-0.154105	0.000000	0.000010	-0.000002	0.000000	0.000000
47.368050	16.051781	17.566343	1.439601	-1.820474	2.599240	0.000000	-0.232194	0.000000	0.000009	-0.000002	0.000000	0.000000
47.917110	14.263501	19.976377	1.798102	-2.594817	2.451228	0.000000	-0.306164	0.000000	0.000008	-0.000003	0.000000	0.000000
48.363070	12.871943	22.119038	1.333318	-2.189588	2.329984	0.000000	-0.237867	0.000000	0.000007	-0.000002	0.000000	0.000000
48.804030	11.876268	23.834550	0.933219	-1.686010	2.239554	0.000000	-0.172677	0.000000	0.000006	-0.000002	0.000000	0.000000
49.244990	11.213384	25.070294	0.575756	-1.105720	2.177410	0.000000	-0.109454	0.000000	0.000005	-0.000002	0.000000	0.000000
49.685950	10.853008	25.770045	0.244598	-0.475121	2.142844	0.000000	-0.047477	0.000000	0.000004	-0.000002	0.000000	0.000000
50.128160	10.778795	25.901680	-0.049069	0.113530	2.135472	0.000000	0.008723	0.000000	0.000003	-0.000002	0.000000	0.000000
50.425482	10.816195	25.837627	-0.076719	0.101903	2.138066	0.000000	0.008723	0.000000	0.000003	-0.000002	0.000000	0.000000
50.758816	10.877674	25.774036	-0.107719	0.088868	2.140974	0.000000	0.008723	0.000000	0.000002	-0.000002	0.000000	0.000000
51.092149	10.959820	25.719136	-0.138718	0.075833	2.143883	0.000000	0.008723	0.000000	0.000001	-0.000002	0.000000	0.000000
51.426732	11.062832	25.673289	-0.080085	-0.145525	2.146780	0.000000	-0.008693	0.000000	0.000001	-0.000002	0.000000	0.000000
51.724055	11.118496	25.763341	-0.079867	-0.220531	2.144196	0.000000	-0.013951	0.000000	0.000000	-0.000002	0.000000	0.000000
52.165015	11.334128	25.671185	-0.410993	0.428725	2.151633	0.000000	0.047711	0.000000	-0.000001	-0.000002	0.000000	0.000000
52.605975	11.848931	25.012885	-0.760896	1.058474	2.186354	0.000000	0.109916	0.000000	-0.000001	-0.000002	0.000000	0.000000
53.046935	12.686425	23.818393	-1.145562	1.640063	2.248755	0.000000	0.173373	0.000000	-0.000002	-0.000002	0.000000	0.000000
53.487895	13.884872	22.142057	-1.582565	2.147031	2.339547	0.000000	0.238805	0.000000	-0.000003	-0.000002	0.000000	0.000000
53.933855	15.519575	20.035088	-2.096096	2.557649	2.461268	0.000000	0.307356	0.000000	-0.000004	-0.000002	0.000000	0.000000
54.482915	17.624252	17.664155	-1.714450	1.786007	2.609845	0.000000	0.233051	0.000000	-0.000005	-0.000002	0.000000	0.000000
55.031975	19.240452	16.066167	-1.211704	1.141579	2.716429	0.000000	0.154613	0.000000	-0.000006	-0.000002	0.000000	0.000000
55.581035	20.254016	15.127302	-0.623369	0.578464	2.779127	0.000000	0.073432	0.000000	-0.000007	-0.000002	0.000000	0.000000
56.130095	20.593351	14.780688	0.008998	0.056550	2.796829	0.000000	-0.009051	0.000000	-0.000008	-0.000001	0.000000	0.000000
56.428668	20.624448	14.729942	-0.059340	0.074789	2.796309	0.000000	-0.001743	0.000000	-0.000008	-0.000001	0.000000	0.000000
56.762001	20.669414	14.687667	-0.075559	0.052033	2.795728	0.000000	-0.001743	0.000000	-0.000009	-0.000001	0.000000	0.000000
57.095334	20.725193	14.660564	-0.091778	0.029277	2.795147	0.000000	-0.001743	0.000000	-0.000009	-0.000001	0.000000	0.000000
57.429918	20.792054	14.648615	-0.108058	0.006435	2.794565	0.000000	-0.001743	0.000000	-0.000010	-0.000001	0.000000	0.000000
57.727240	20.860612	14.650824	-0.177034	0.024420	2.794047	0.000000	0.005558	0.000000	-0.000010	-0.000001	0.000000	0.000000
58.276300	20.699164	14.905287	0.469336	-0.490608	2.774459	0.000000	-0.076805	0.000000	-0.000011	-0.000001	0.000000	0.000000
58.825360	19.842008	15.741068	1.082555	-1.040582	2.709957	0.000000	-0.157805	0.000000	-0.000011	-0.000001	0.000000	0.000000
59.374420	18.349689	17.217699	1.619308	-1.664673	2.601685	0.000000	-0.236007	0.000000	-0.000011	-0.000000	0.000000	0.000000
59.923480	16.327618	19.440356	2.041680	-2.407336	2.451563	0.000000	-0.310022	0.000000	-0.000011	0.000000	0.000000	0.000000
60.369440	14.745003	21.415832	1.519669	-2.003682	2.328596	0.000000	-0.241739	0.000000	-0.000011	-0.000000	0.000000	0.000000
60.810400	13.606813	22.971249	1.071287	-1.510239	2.236447	0.000000	-0.176607	0.000000	-0.000012	-0.000001	0.000000	0.000000
61.251360	12.841065	24.059411	0.671848	-0.948081	2.172548	0.000000	-0.113486	0.000000	-0.000012	-0.000001	0.000000	0.000000
61.692320	12.412775	24.630806	0.303104	-0.342787	2.136172	0.000000	-0.051658	0.000000	-0.000012	-0.000001	0.000000	0.000000
62.134530	12.302429	24.658893	-0.021720	0.217572	2.126910	0.000000	0.004366	0.000000	-0.000013	-0.000001	0.000000	0.000000
62.431853	12.322534	24.533269	-0.045899	0.204944	2.128208	0.000000	0.004366	0.000000	-0.000013	-0.000001	0.000000	0.000000
62.765186	12.362169	24.401359	-0.073007	0.190786	2.129664	0.000000	0.004366	0.000000	-0.000014	-0.000001	0.000000	0.000000
63.098520	12.419877	24.278887	-0.100115	0.176629	2.131120	0.000000	0.004366	0.000000	-0.000014	-0.000001	0.000000	0.000000
63.433103	12.495974	24.165448	-0.127324	0.162418	2.132581	0.000000	0.004366	0.000000	-0.000015	-0.000001	0.000000	0.000000
63.730426	12.578876	24.072622	-0.120652	0.090748	2.133879	0.000000	-0.000868	0.000000	-0.000015	-0.000001	0.000000	0.000000
64.171386	12.845505	23.727489	-0.486299	0.688958	2.147037	0.000000	0.060602	0.000000	-0.000016	-0.000002	0.000000	0.000000
64.612346	13.443148	22.866644	-0.874164	1.255821	2.187428	0.000000	0.122762	0.000000	-0.000017	-0.000002	0.000000	0.000000
65.053306	14.399107	21.529253	-1.301967	1.765546	2.255510	0.000000	0.186320	0.000000	-0.000018	-0.000003	0.000000	0.000000
65.494266	15.757060	19.776166	-1.789254	2.194939	2.352061	0.000000	0.252000	0.000000	-0.000019	-0.000003	0.000000	0.000000
65.940226	17.602206	17.662348	-2.362976	2.525216	2.479750	0.000000	0.320953	0.000000	-0.000021	-0.000004	0.000000	0.000000
66.489286	19.967649	15.297705	-1.919692	1.806918	2.635608	0.000000	0.245931	0.000000	-0.000022	-0.000003	0.000000	0.000000
67.038346	21.768519	13.646960	-1.340810	1.217323	2.749014	0.000000	0.166548	0.000000	-0.000024	-0.000002	0.000000	0.000000
67.587406	22.877613	12.592533	-0.667221	0.714435	2.817957	0.000000	0.084210	0.000000	-0.000025	-0.000001	0.000000	0.000000
68.136466	23.216590	12.059321	0.053498	0.262434	2.841214	0.000000	0.000378	0.000000	-0.000025	-0.000001	0.000000	0.000000
68.435038	23.224715	11.891822	-0.020037	0.267052	2.843544	0.000000	0.007804	0.000000	-0.000025	-0.000001	0.000000	0.000000
68.768372	23.242859	11.723797	-0.034395	0.237022	2.846146	0.000000	0.007804	0.000000	-0.000026	-0.000001	0.000000	0.000000
69.101705	23.270575	11.575792	-0.048753	0.206993	2.848747	0.000000	0.007804	0.000000	-0.000026	-0.000001	0.000000	0.000000
69.436288	23.308021	11.447364	-0.063165	0.176851	2.851358	0.000000	0.007804	0.000000	-0.000026	-0.000001	0.000000	0.000000
69.733611	23.349390	11.350165	-0.136994	0.179728	2.853679	0.000000	0.015261	0.000000	-0.000026	-0.000001	0.000000	0.000000
70.282671	23.098804	11.380158	0.590683	-0.234677	2.838874	0.000000	-0.069111	0.000000	-0.000026	0.000000	0.000000	0.000000
