#ParticleID	Turn	x[m]	xp	y[m]	yp	z[m]	dE[GeV]# s	beta_x	beta_y	alpha_x	alpha_y	D_x	D_y	D_px	D_py	orbit_x	orbit_px	orbit_y	orbit_py
0.300000	11.801575	25.065144	-0.009945	-0.026678	2.618396	0.000000	-0.000095	0.000000	-0.000002	0.000002	0.000000	0.000000
0.601250	11.815258	25.084841	-0.035474	-0.038706	2.618367	0.000000	-0.000095	0.000000	-0.000001	0.000002	0.000000	0.000000
0.898573	11.843843	25.111386	-0.031625	-0.112156	2.618338	0.000000	-0.006516	0.000000	-0.000000	0.000002	0.000000	0.000000
1.339533	12.023721	24.931721	-0.377844	0.518046	2.631758	0.000000	0.067446	0.000000	0.000000	0.000002	0.000000	0.000000
1.780493	12.515364	24.204578	-0.741324	1.124678	2.677931	0.000000	0.142177	0.000000	0.000001	0.000002	0.000000	0.000000
2.221453	13.341236	22.963042	-1.138674	1.680138	2.757382	0.000000	0.218527	0.000000	0.000002	0.000002	0.000000	0.000000
2.662413	14.539067	21.263601	-1.588047	2.159153	2.871017	0.000000	0.297365	0.000000	0.000003	0.000002	0.000000	0.000000
3.108373	16.184295	19.158660	-2.114257	2.541062	3.021991	0.000000	0.380081	0.000000	0.000004	0.000002	0.000000	0.000000
3.657433	18.294081	16.794433	-1.705536	1.790308	3.205405	0.000000	0.287043	0.000000	0.000005	0.000002	0.000000	0.000000
4.206493	19.885829	15.180182	-1.176344	1.167073	3.336262	0.000000	0.188915	0.000000	0.000006	0.000002	0.000000	0.000000
4.755553	20.847107	14.200927	-0.564061	0.626966	3.412239	0.000000	0.087436	0.000000	0.000007	0.000002	0.000000	0.000000
5.304613	21.110015	13.786918	0.088064	0.131517	3.431990	0.000000	-0.015595	0.000000	0.000008	0.000001	0.000000	0.000000
5.603185	21.094590	13.693522	0.018752	0.145273	3.430010	0.000000	-0.006628	0.000000	0.000008	0.000001	0.000000	0.000000
5.936519	21.087358	13.604959	0.002945	0.120417	3.427801	0.000000	-0.006628	0.000000	0.000009	0.000001	0.000000	0.000000
6.269852	21.090664	13.532966	-0.012863	0.095561	3.425591	0.000000	-0.006628	0.000000	0.000009	0.000001	0.000000	0.000000
6.604435	21.104580	13.477368	-0.028729	0.070611	3.423373	0.000000	-0.006628	0.000000	0.000010	0.000001	0.000000	0.000000
6.901758	21.125856	13.441971	-0.098022	0.083559	3.421402	0.000000	0.002311	0.000000	0.000010	0.000001	0.000000	0.000000
7.450818	20.873491	13.611205	0.554933	-0.393603	3.394471	0.000000	-0.100260	0.000000	0.000011	0.000001	0.000000	0.000000
7.999878	19.921483	14.316648	1.168691	-0.898801	3.311629	0.000000	-0.201053	0.000000	0.000011	0.000001	0.000000	0.000000
8.548938	18.337076	15.608548	1.699898	-1.468018	3.174346	0.000000	-0.298279	0.000000	0.000012	0.000000	0.000000	0.000000
9.097998	16.232186	17.578923	2.111033	-2.141798	2.985055	0.000000	-0.390214	0.000000	0.000012	-0.000000	0.000000	0.000000
9.543958	14.590045	19.334590	1.584320	-1.778386	2.829339	0.000000	-0.308519	0.000000	0.000012	0.000000	0.000000	0.000000
9.984918	13.395785	20.712844	1.134273	-1.335296	2.710538	0.000000	-0.230821	0.000000	0.000012	0.000001	0.000000	0.000000
10.425878	12.574165	21.671943	0.736047	-0.831450	2.625387	0.000000	-0.155752	0.000000	0.000012	0.000001	0.000000	0.000000
10.866838	12.087650	22.168246	0.371449	-0.289774	2.572916	0.000000	-0.082458	0.000000	0.000013	0.000001	0.000000	0.000000
11.309048	11.913877	22.178648	0.052930	0.210644	2.552507	0.000000	-0.016361	0.000000	0.000013	0.000002	0.000000	0.000000
11.606371	11.889843	22.057552	0.027904	0.196643	2.547642	0.000000	-0.016361	0.000000	0.000014	0.000002	0.000000	0.000000
12.086371	11.882448	21.879624	-0.012498	0.174040	2.539788	0.000000	-0.016361	0.000000	0.000014	0.000002	0.000000	0.000000
12.566371	11.913839	21.723395	-0.052900	0.151437	2.531934	0.000000	-0.016361	0.000000	0.000015	0.000002	0.000000	0.000000
13.046371	11.984016	21.588864	-0.093302	0.128835	2.524081	0.000000	-0.016361	0.000000	0.000016	0.000002	0.000000	0.000000
13.526371	12.092978	21.476032	-0.133704	0.106232	2.516227	0.000000	-0.016361	0.000000	0.000017	0.000002	0.000000	0.000000
14.007621	12.241162	21.384690	-0.174211	0.083570	2.508352	0.000000	-0.016361	0.000000	0.000017	0.000002	0.000000	0.000000
14.304943	12.352197	21.339158	-0.168951	0.017249	2.503488	0.000000	-0.022499	0.000000	0.000018	0.000001	0.000000	0.000000
14.745903	12.659668	21.090412	-0.530969	0.544704	2.509193	0.000000	0.048403	0.000000	0.000019	0.000002	0.000000	0.000000
15.186863	13.295859	20.385687	-0.917246	1.047375	2.546255	0.000000	0.119857	0.000000	0.000019	0.000002	0.000000	0.000000
15.627823	14.289838	19.257047	-1.345429	1.502392	2.615095	0.000000	0.192675	0.000000	0.000021	0.000003	0.000000	0.000000
16.068783	15.687016	17.755844	-1.835081	1.889050	2.716498	0.000000	0.267688	0.000000	0.000022	0.000003	0.000000	0.000000
16.514743	17.574891	15.928883	-2.413331	2.190500	2.853313	0.000000	0.346212	0.000000	0.000024	0.000004	0.000000	0.000000
17.063803	19.999737	13.889013	-1.976881	1.546633	3.019682	0.000000	0.258917	0.000000	0.000026	0.000003	0.000000	0.000000
17.612863	21.865329	12.491906	-1.400794	1.012929	3.136788	0.000000	0.167029	0.000000	0.000027	0.000002	0.000000	0.000000
18.161923	23.039889	11.638050	-0.725762	0.551374	3.202553	0.000000	0.072178	0.000000	0.000028	0.000002	0.000000	0.000000
18.710983	23.440454	11.266626	0.000535	0.129092	3.215811	0.000000	-0.023953	0.000000	0.000029	0.000001	0.000000	0.000000
19.009556	23.480516	11.180076	-0.073480	0.131356	3.211167	0.000000	-0.015553	0.000000	0.000029	0.000001	0.000000	0.000000
19.342889	23.534260	11.102615	-0.087753	0.101026	3.205983	0.000000	-0.015553	0.000000	0.000029	0.000001	0.000000	0.000000
19.676223	23.597520	11.045374	-0.102026	0.070697	3.200798	0.000000	-0.015553	0.000000	0.000030	0.000001	0.000000	0.000000
20.010806	23.670879	11.008116	-0.233631	0.094795	3.195614	0.000000	0.000280	0.000000	0.000030	0.000001	0.000000	0.000000
20.308129	23.813745	10.959849	-0.309083	0.096172	3.195697	0.000000	0.008628	0.000000	0.000030	0.000001	0.000000	0.000000
20.857189	23.742412	11.076077	0.438232	-0.309107	3.174227	0.000000	-0.086719	0.000000	0.000030	-0.000000	0.000000	0.000000
21.406249	22.862648	11.646757	1.154592	-0.736403	3.100752	0.000000	-0.180527	0.000000	0.000030	-0.000001	0.000000	0.000000
21.955309	21.236594	12.712536	1.789397	-1.216151	2.976576	0.000000	-0.271133	0.000000	0.000029	-0.000002	0.000000	0.000000
22.504369	18.979108	14.349327	2.297808	-1.782523	2.803902	0.000000	-0.356929	0.000000	0.000028	-0.000003	0.000000	0.000000
22.950329	17.199880	15.819000	1.705929	-1.499100	2.662012	0.000000	-0.279753	0.000000	0.000027	-0.000002	0.000000	0.000000
23.391289	15.924780	16.990867	1.196686	-1.148321	2.554968	0.000000	-0.206218	0.000000	0.000026	-0.000002	0.000000	0.000000
23.832249	15.073076	17.829066	0.742117	-0.745294	2.479802	0.000000	-0.135031	0.000000	0.000025	-0.000001	0.000000	0.000000
24.273209	14.605856	18.295459	0.321452	-0.308357	2.435657	0.000000	-0.065381	0.000000	0.000025	-0.000000	0.000000	0.000000
24.715418	14.501899	18.368582	-0.049058	0.097506	2.422029	0.000000	-0.002415	0.000000	0.000025	0.000000	0.000000	0.000000
25.012741	14.537181	18.315459	-0.069610	0.081166	2.421310	0.000000	-0.002415	0.000000	0.000025	0.000000	0.000000	0.000000
25.346075	14.591268	18.267455	-0.092650	0.062846	2.420505	0.000000	-0.002415	0.000000	0.000025	0.000000	0.000000	0.000000
25.679408	14.660715	18.231664	-0.115691	0.044527	2.419700	0.000000	-0.002415	0.000000	0.000025	0.000000	0.000000	0.000000
26.013991	14.745571	18.208389	-0.019193	-0.121577	2.418867	0.000000	-0.022039	0.000000	0.000025	0.000000	0.000000	0.000000
26.311314	14.762981	18.285611	-0.003169	-0.182978	2.412315	0.000000	-0.027953	0.000000	0.000025	0.000000	0.000000	0.000000
26.752274	14.947639	18.248709	-0.417181	0.266344	2.415092	0.000000	0.040561	0.000000	0.000026	0.000001	0.000000	0.000000
27.193234	15.504415	17.819392	-0.850253	0.703548	2.448154	0.000000	0.109537	0.000000	0.000026	0.000001	0.000000	0.000000
27.634194	16.458747	17.017192	-1.322171	1.108741	2.511877	0.000000	0.179761	0.000000	0.000027	0.000002	0.000000	0.000000
28.075154	17.854237	15.878610	-1.854495	1.463486	2.606987	0.000000	0.252032	0.000000	0.000028	0.000003	0.000000	0.000000
28.521114	19.778879	14.438294	-2.476520	1.752556	2.736170	0.000000	0.327616	0.000000	0.000029	0.000003	0.000000	0.000000
29.070174	22.225091	12.833615	-1.952374	1.187287	2.893398	0.000000	0.244264	0.000000	0.000031	0.000003	0.000000	0.000000
29.619234	24.016128	11.799866	-1.290321	0.706586	3.003603	0.000000	0.156580	0.000000	0.000032	0.000002	0.000000	0.000000
30.168294	25.025483	11.263416	-0.537127	0.276214	3.064830	0.000000	0.066118	0.000000	0.000033	0.000000	0.000000	0.000000
30.717354	25.181859	11.186055	0.254007	-0.134484	3.075993	0.000000	-0.025517	0.000000	0.000033	-0.000001	0.000000	0.000000
31.015927	25.073124	11.256971	0.175953	-0.132252	3.070773	0.000000	-0.017482	0.000000	0.000032	-0.000001	0.000000	0.000000
31.349260	24.960391	11.355182	0.162247	-0.162382	3.064946	0.000000	-0.017482	0.000000	0.000032	-0.000001	0.000000	0.000000
31.682593	24.856795	11.473480	0.148541	-0.192511	3.059119	0.000000	-0.017482	0.000000	0.000032	-0.000001	0.000000	0.000000
32.017177	24.761999	11.612420	0.134783	-0.222753	3.053270	0.000000	-0.017482	0.000000	0.000032	-0.000001	0.000000	0.000000
32.314499	24.685486	11.752869	0.058077	-0.218927	3.048072	0.000000	-0.009520	0.000000	0.000032	-0.000000	0.000000	0.000000
32.863559	24.198729	12.232444	0.823202	-0.659675	3.017978	0.000000	-0.099943	0.000000	0.000031	-0.000001	0.000000	0.000000
33.412619	22.898885	13.218821	1.530180	-1.147411	2.938650	0.000000	-0.188594	0.000000	0.000030	-0.000002	0.000000	0.000000
33.961679	20.877769	14.782257	2.129074	-1.716873	2.811496	0.000000	-0.273899	0.000000	0.000029	-0.000003	0.000000	0.000000
34.510739	18.278142	17.034112	2.577581	-2.408625	2.638771	0.000000	-0.354347	0.000000	0.000026	-0.000004	0.000000	0.000000
34.956699	16.256762	19.048355	1.971306	-2.089161	2.497082	0.000000	-0.281451	0.000000	0.000025	-0.000004	0.000000	0.000000
35.397659	14.749359	20.714711	1.460116	-1.675385	2.388349	0.000000	-0.212189	0.000000	0.000023	-0.000003	0.000000	0.000000
35.838619	13.661778	21.981013	1.015635	-1.185379	2.309597	0.000000	-0.145344	0.000000	0.000022	-0.000002	0.000000	0.000000
36.279579	12.944327	22.789645	0.617555	-0.641440	2.259927	0.000000	-0.080154	0.000000	0.000021	-0.000002	0.000000	0.000000
36.721789	12.563535	23.104127	0.278387	-0.125017	2.238748	0.000000	-0.021366	0.000000	0.000020	-0.000001	0.000000	0.000000
37.019112	12.405575	23.182354	0.252888	-0.138087	2.232396	0.000000	-0.021366	0.000000	0.000020	-0.000001	0.000000	0.000000
37.352445	12.246512	23.279296	0.224300	-0.152740	2.225275	0.000000	-0.021366	0.000000	0.000019	-0.000001	0.000000	0.000000
37.685779	12.106509	23.386007	0.195712	-0.167393	2.218153	0.000000	-0.021366	0.000000	0.000019	-0.000001	0.000000	0.000000
38.020362	11.985146	23.502942	0.167016	-0.182101	2.211005	0.000000	-0.021366	0.000000	0.000019	-0.000001	0.000000	0.000000
38.317684	11.893412	23.615113	0.170678	-0.253072	2.204653	0.000000	-0.026771	0.000000	0.000018	-0.000001	0.000000	0.000000
38.758644	11.894477	23.576718	-0.173102	0.339814	2.206770	0.000000	0.036381	0.000000	0.000018	-0.000001	0.000000	0.000000
39.199604	12.201057	23.020290	-0.524791	0.917239	2.236800	0.000000	0.099947	0.000000	0.000017	-0.000001	0.000000	0.000000
39.640564	12.827158	21.971148	-0.900456	1.452930	2.295083	0.000000	0.164652	0.000000	0.000017	-0.000000	0.000000	0.000000
40.081524	13.801387	20.477025	-1.317260	1.922515	2.382285	0.000000	0.231232	0.000000	0.000017	0.000000	0.000000	0.000000
40.527484	15.185829	18.583323	-1.798075	2.305914	2.500869	0.000000	0.300851	0.000000	0.000017	0.000001	0.000000	0.000000
41.076544	16.952389	16.455183	-1.400303	1.592933	2.645533	0.000000	0.225327	0.000000	0.000018	0.000000	0.000000	0.000000
41.625604	18.224914	15.043457	-0.903621	0.993413	2.747571	0.000000	0.145805	0.000000	0.000018	-0.000000	0.000000	0.000000
42.174664	18.913521	14.247589	-0.343111	0.464652	2.805171	0.000000	0.063698	0.000000	0.000017	-0.000001	0.000000	0.000000
42.723724	18.969569	14.010891	0.241635	-0.031012	2.817312	0.000000	-0.019539	0.000000	0.000017	-0.000001	0.000000	0.000000
43.022297	18.859743	14.013916	0.175757	-0.015720	2.813676	0.000000	-0.012179	0.000000	0.000016	-0.000001	0.000000	0.000000
43.502297	18.703610	14.045452	0.149520	-0.049980	2.807831	0.000000	-0.012179	0.000000	0.000016	-0.000001	0.000000	0.000000
43.982297	18.572665	14.109878	0.123283	-0.084240	2.801986	0.000000	-0.012179	0.000000	0.000015	-0.000001	0.000000	0.000000
44.462297	18.466907	14.207193	0.097046	-0.118500	2.796140	0.000000	-0.012179	0.000000	0.000014	-0.000001	0.000000	0.000000
44.942297	18.386337	14.337398	0.070808	-0.152761	2.790295	0.000000	-0.012179	0.000000	0.000014	-0.000001	0.000000	0.000000
45.423547	18.331071	14.500781	-0.046320	-0.115264	2.784452	0.000000	0.001617	0.000000	0.000013	-0.000001	0.000000	0.000000
45.720870	18.363447	14.575500	-0.110549	-0.097962	2.784933	0.000000	0.008893	0.000000	0.000013	-0.000001	0.000000	0.000000
46.269930	18.175653	14.964896	0.450553	-0.615431	2.767252	0.000000	-0.073206	0.000000	0.000012	-0.000002	0.000000	0.000000
46.818990	17.385609	15.943129	0.979830	-1.176735	2.704785	0.000000	-0.154006	0.000000	0.000011	-0.000002	0.000000	0.000000
47.368050	16.049122	17.579874	1.439897	-1.821856	2.598639	0.000000	-0.232074	0.000000	0.000009	-0.000002	0.000000	0.000000
47.917110	14.260594	19.991715	1.798256	-2.596744	2.450698	0.000000	-0.306026	0.000000	0.000008	-0.000003	0.000000	0.000000
48.363070	12.868884	22.135944	1.333507	-2.191164	2.329513	0.000000	-0.237742	0.000000	0.000007	-0.000002	0.000000	0.000000
48.804030	11.873023	23.852665	0.933452	-1.687164	2.239135	0.000000	-0.172564	0.000000	0.000006	-0.000002	0.000000	0.000000
49.244990	11.209912	25.089221	0.576043	-1.106401	2.177039	0.000000	-0.109350	0.000000	0.000005	-0.000002	0.000000	0.000000
49.685950	10.849253	25.789350	0.244953	-0.475296	2.142516	0.000000	-0.047382	0.000000	0.000004	-0.000002	0.000000	0.000000
50.128160	10.774692	25.920913	-0.048641	0.113821	2.135185	0.000000	0.008810	0.000000	0.000003	-0.000002	0.000000	0.000000
50.425482	10.811840	25.856685	-0.076301	0.102202	2.137805	0.000000	0.008810	0.000000	0.000002	-0.000002	0.000000	0.000000
50.758816	10.873044	25.792892	-0.107311	0.089175	2.140742	0.000000	0.008810	0.000000	0.000002	-0.000002	0.000000	0.000000
51.092149	10.954921	25.737784	-0.138321	0.076149	2.143680	0.000000	0.008810	0.000000	0.000001	-0.000002	0.000000	0.000000
51.426732	11.057671	25.691724	-0.079740	-0.145350	2.146606	0.000000	-0.008605	0.000000	0.000000	-0.000002	0.000000	0.000000
51.724055	11.113133	25.781669	-0.079547	-0.220392	2.144048	0.000000	-0.013862	0.000000	-0.000000	-0.000002	0.000000	0.000000
52.165015	11.328426	25.689177	-0.410543	0.429345	2.151524	0.000000	0.047796	0.000000	-0.000001	-0.000002	0.000000	0.000000
52.605975	11.842768	25.030127	-0.760296	1.059547	2.186283	0.000000	0.109999	0.000000	-0.000002	-0.000002	0.000000	0.000000
53.046935	12.679656	23.834505	-1.144784	1.641541	2.248720	0.000000	0.173455	0.000000	-0.000003	-0.000002	0.000000	0.000000
53.487895	13.877328	22.156711	-1.581575	2.148846	2.339548	0.000000	0.238887	0.000000	-0.000004	-0.000002	0.000000	0.000000
53.933855	15.511034	20.048002	-2.094845	2.559719	2.461305	0.000000	0.307438	0.000000	-0.000005	-0.000002	0.000000	0.000000
54.482915	17.614460	17.675085	-1.713437	1.787571	2.609928	0.000000	0.233132	0.000000	-0.000006	-0.000002	0.000000	0.000000
55.031975	19.229712	16.075605	-1.211000	1.142748	2.716555	0.000000	0.154690	0.000000	-0.000007	-0.000002	0.000000	0.000000
55.581035	20.242697	15.135634	-0.623024	0.579321	2.779294	0.000000	0.073504	0.000000	-0.000008	-0.000002	0.000000	0.000000
56.130095	20.581863	14.788220	0.008959	0.057157	2.797033	0.000000	-0.008985	0.000000	-0.000009	-0.000001	0.000000	0.000000
56.428668	20.612968	14.737098	-0.059357	0.075424	2.796533	0.000000	-0.001676	0.000000	-0.000009	-0.000001	0.000000	0.000000
56.762001	20.657948	14.694398	-0.075585	0.052677	2.795975	0.000000	-0.001676	0.000000	-0.000010	-0.000001	0.000000	0.000000
57.095334	20.713748	14.666862	-0.091813	0.029929	2.795416	0.000000	-0.001676	0.000000	-0.000010	-0.000001	0.000000	0.000000
57.429918	20.780636	14.654474	-0.108102	0.007097	2.794856	0.000000	-0.001676	0.000000	-0.000011	-0.000001	0.000000	0.000000
57.727240	20.849222	14.656287	-0.177057	0.025104	2.794358	0.000000	0.005625	0.000000	-0.000011	-0.000001	0.000000	0.000000
58.276300	20.688009	14.910080	0.468935	-0.490065	2.774805	0.000000	-0.076748	0.000000	-0.000012	-0.000001	0.000000	0.000000
58.825360	19.831490	15.745325	1.081804	-1.040141	2.710331	0.000000	-0.157760	0.000000	-0.000012	-0.000001	0.000000	0.000000
59.374420	18.340165	17.221514	1.618260	-1.664304	2.602080	0.000000	-0.235974	0.000000	-0.000013	-0.000000	0.000000	0.000000
59.923480	16.319374	19.443792	2.040410	-2.407011	2.451972	0.000000	-0.310002	0.000000	-0.000013	0.000000	0.000000	0.000000
60.369440	14.737775	21.418912	1.518655	-2.003213	2.329016	0.000000	-0.241709	0.000000	-0.000013	-0.000000	0.000000	0.000000
60.810400	13.600384	22.973860	1.070482	-1.509648	2.236883	0.000000	-0.176565	0.000000	-0.000013	-0.000001	0.000000	0.000000
61.251360	12.835268	24.061457	0.671215	-0.947396	2.173005	0.000000	-0.113433	0.000000	-0.000013	-0.000001	0.000000	0.000000
61.692320	12.407471	24.632217	0.302614	-0.342038	2.136655	0.000000	-0.051593	0.000000	-0.000014	-0.000001	0.000000	0.000000
62.134530	12.297503	24.659626	-0.022101	0.218348	2.127425	0.000000	0.004442	0.000000	-0.000014	-0.000002	0.000000	0.000000
62.431853	12.317837	24.533542	-0.046291	0.205716	2.128746	0.000000	0.004442	0.000000	-0.000015	-0.000002	0.000000	0.000000
62.765186	12.357738	24.401119	-0.073410	0.191555	2.130228	0.000000	0.004442	0.000000	-0.000015	-0.000002	0.000000	0.000000
63.098520	12.415717	24.278136	-0.100529	0.177393	2.131709	0.000000	0.004442	0.000000	-0.000016	-0.000002	0.000000	0.000000
63.433103	12.492095	24.164187	-0.127749	0.163178	2.133196	0.000000	0.004442	0.000000	-0.000016	-0.000002	0.000000	0.000000
63.730426	12.575252	24.070910	-0.121096	0.091507	2.134517	0.000000	-0.000793	0.000000	-0.000017	-0.000001	0.000000	0.000000
64.171386	12.842241	23.725134	-0.486673	0.689652	2.147712	0.000000	0.060694	0.000000	-0.000017	-0.000002	0.000000	0.000000
64.612346	13.440188	22.863717	-0.874485	1.256419	2.188147	0.000000	0.122872	0.000000	-0.000018	-0.000002	0.000000	0.000000
65.053306	14.396413	21.525851	-1.302250	1.766020	2.256282	0.000000	0.186449	0.000000	-0.000019	-0.000003	0.000000	0.000000
65.494266	15.754602	19.772410	-1.789511	2.195268	2.352894	0.000000	0.252150	0.000000	-0.000021	-0.000003	0.000000	0.000000
65.940226	17.599971	17.658371	-2.363220	2.525383	2.480656	0.000000	0.321125	0.000000	-0.000022	-0.000004	0.000000	0.000000
66.489286	19.965751	15.293515	-1.920060	1.807142	2.636600	0.000000	0.246073	0.000000	-0.000024	-0.000003	0.000000	0.000000
67.038346	21.767082	13.642486	-1.341277	1.217619	2.750075	0.000000	0.166656	0.000000	-0.000026	-0.000002	0.000000	0.000000
67.587406	22.876727	12.587684	-0.667752	0.714825	2.819068	0.000000	0.084283	0.000000	-0.000027	-0.000002	0.000000	0.000000
68.136466	23.216306	12.053979	0.052939	0.262947	2.842355	0.000000	0.000415	0.000000	-0.000028	-0.000001	0.000000	0.000000
68.435038	23.224765	11.886187	-0.020597	0.267532	2.844697	0.000000	0.007844	0.000000	-0.000028	-0.000001	0.000000	0.000000
68.768372	23.243283	11.717850	-0.034955	0.237481	2.847312	0.000000	0.007844	0.000000	-0.000028	-0.000001	0.000000	0.000000
69.101705	23.271372	11.569547	-0.049314	0.207430	2.849927	0.000000	0.007844	0.000000	-0.000028	-0.000001	0.000000	0.000000
69.436288	23.309193	11.440834	-0.063726	0.177266	2.852551	0.000000	0.007844	0.000000	-0.000028	-0.000001	0.000000	0.000000
69.733611	23.350896	11.343393	-0.137560	0.180107	2.854884	0.000000	0.015305	0.000000	-0.000029	-0.000001	0.000000	0.000000
70.282671	23.100899	11.372865	0.590183	-0.234101	2.840092	0.000000	-0.069107	0.000000	-0.000029	0.000000	0.000000	0.000000
