#ParticleID	Turn	x[m]	xp	y[m]	yp	z[m]	dE[GeV]# s	beta_x	beta_y	alpha_x	alpha_y	D_x	D_y	D_px	D_py	orbit_x	orbit_px	orbit_y	orbit_py
0.300000	11.831260	24.950137	-0.013273	-0.027759	2.618272	0.000000	-0.000049	0.000000	0.000000	0.000000	0.000000	0.000000
0.601250	11.846929	24.970503	-0.038740	-0.039843	2.618257	0.000000	-0.000049	0.000000	0.000000	0.000000	0.000000	0.000000
0.898573	11.877439	24.997741	-0.034748	-0.113070	2.618243	0.000000	-0.006469	0.000000	0.000000	0.000000	0.000000	0.000000
1.339533	12.060431	24.820206	-0.381812	0.514149	2.631684	0.000000	0.067491	0.000000	0.000000	0.000000	0.000000	0.000000
1.780493	12.556013	24.097755	-0.746321	1.117975	2.677877	0.000000	0.142220	0.000000	0.000000	0.000000	0.000000	0.000000
2.221453	13.386826	22.863261	-1.144927	1.670933	2.757347	0.000000	0.218568	0.000000	0.000000	0.000000	0.000000	0.000000
2.662413	14.590827	21.172891	-1.595841	2.147866	2.871001	0.000000	0.297407	0.000000	0.000001	0.000000	0.000000	0.000000
3.108373	16.243832	19.078762	-2.123965	2.528202	3.021994	0.000000	0.380122	0.000000	0.000001	0.000000	0.000000	0.000000
3.657433	18.363487	16.726860	-1.713699	1.780589	3.205432	0.000000	0.287084	0.000000	0.000001	0.000000	0.000000	0.000000
4.206493	19.963082	15.121882	-1.182387	1.159803	3.336311	0.000000	0.188954	0.000000	0.000001	0.000000	0.000000	0.000000
4.755553	20.929627	14.149509	-0.567557	0.621628	3.412310	0.000000	0.087473	0.000000	0.000001	0.000000	0.000000	0.000000
5.304613	21.194853	13.740481	0.087363	0.127730	3.432082	0.000000	-0.015560	0.000000	0.000001	0.000000	0.000000	0.000000
5.603185	21.179963	13.649431	0.017884	0.141320	3.430113	0.000000	-0.006593	0.000000	0.000001	0.000000	0.000000	0.000000
5.936519	21.173288	13.563521	0.002141	0.116411	3.427916	0.000000	-0.006593	0.000000	0.000001	0.000000	0.000000	0.000000
6.269852	21.177109	13.494216	-0.013603	0.091502	3.425718	0.000000	-0.006593	0.000000	0.000001	0.000000	0.000000	0.000000
6.604435	21.191499	13.441352	-0.029405	0.066500	3.423513	0.000000	-0.006593	0.000000	0.000001	0.000000	0.000000	0.000000
6.901758	21.213159	13.408414	-0.098873	0.079315	3.421552	0.000000	0.002347	0.000000	0.000001	0.000000	0.000000	0.000000
7.450818	20.960119	13.581806	0.557006	-0.396978	3.394641	0.000000	-0.100229	0.000000	0.000001	0.000000	0.000000	0.000000
7.999878	20.004287	14.290591	1.173541	-0.901548	3.311816	0.000000	-0.201027	0.000000	0.000001	0.000000	0.000000	0.000000
8.548938	18.413178	15.585255	1.707183	-1.470333	3.174545	0.000000	-0.298259	0.000000	0.000001	-0.000000	0.000000	0.000000
9.097998	16.299180	17.558012	2.120238	-2.143847	2.985263	0.000000	-0.390202	0.000000	0.000001	-0.000000	0.000000	0.000000
9.543958	14.649744	19.315907	1.591533	-1.781317	2.829554	0.000000	-0.308501	0.000000	0.000001	-0.000000	0.000000	0.000000
9.984918	13.449870	20.697083	1.139839	-1.338967	2.710763	0.000000	-0.230797	0.000000	0.000001	0.000000	0.000000	0.000000
10.425878	12.623971	21.659686	0.740222	-0.835696	2.625624	0.000000	-0.155723	0.000000	0.000001	0.000000	0.000000	0.000000
10.866838	12.134315	22.159917	0.374422	-0.294401	2.573168	0.000000	-0.082421	0.000000	0.000001	0.000000	0.000000	0.000000
11.309048	11.958394	22.174501	0.054950	0.205851	2.552777	0.000000	-0.016319	0.000000	0.000001	0.000000	0.000000	0.000000
11.606371	11.933132	22.056248	0.030012	0.191875	2.547925	0.000000	-0.016319	0.000000	0.000001	0.000000	0.000000	0.000000
12.086371	11.923646	21.882879	-0.010248	0.169311	2.540091	0.000000	-0.016319	0.000000	0.000001	0.000000	0.000000	0.000000
12.566371	11.952809	21.731171	-0.050509	0.146747	2.532258	0.000000	-0.016319	0.000000	0.000001	0.000000	0.000000	0.000000
13.046371	12.020622	21.601124	-0.090769	0.124184	2.524425	0.000000	-0.016319	0.000000	0.000001	0.000000	0.000000	0.000000
13.526371	12.127085	21.492738	-0.131029	0.101620	2.516592	0.000000	-0.016319	0.000000	0.000002	0.000000	0.000000	0.000000
14.007621	12.272627	21.405816	-0.171395	0.078997	2.508738	0.000000	-0.016319	0.000000	0.000002	0.000000	0.000000	0.000000
14.304943	12.381961	21.362996	-0.165969	0.012633	2.503886	0.000000	-0.022459	0.000000	0.000002	0.000000	0.000000	0.000000
14.745903	12.687066	21.118008	-0.528568	0.540831	2.509612	0.000000	0.048454	0.000000	0.000002	0.000000	0.000000	0.000000
15.186863	13.321355	20.416304	-0.915316	1.044422	2.546699	0.000000	0.119918	0.000000	0.000002	0.000000	0.000000	0.000000
15.627823	14.313805	19.289812	-1.343881	1.500492	2.615570	0.000000	0.192748	0.000000	0.000002	0.000000	0.000000	0.000000
16.068783	15.709760	17.789786	-1.833845	1.888291	2.717009	0.000000	0.267774	0.000000	0.000002	0.000000	0.000000	0.000000
16.514743	17.596651	15.962975	-2.412351	2.190924	2.853867	0.000000	0.346312	0.000000	0.000002	0.000000	0.000000	0.000000
17.063803	20.019822	13.923041	-1.974834	1.546327	3.020287	0.000000	0.258997	0.000000	0.000002	0.000000	0.000000	0.000000
17.612863	21.882641	12.526679	-1.397825	1.011872	3.137433	0.000000	0.167089	0.000000	0.000002	0.000000	0.000000	0.000000
18.161923	23.053527	11.674428	-0.722080	0.549490	3.203227	0.000000	0.072217	0.000000	0.000003	0.000000	0.000000	0.000000
18.710983	23.449775	11.305585	0.004669	0.126247	3.216501	0.000000	-0.023936	0.000000	0.000003	0.000000	0.000000	0.000000
19.009556	23.487387	11.220635	-0.069373	0.128735	3.211863	0.000000	-0.015532	0.000000	0.000003	0.000000	0.000000	0.000000
19.342889	23.538389	11.144878	-0.083633	0.098536	3.206686	0.000000	-0.015532	0.000000	0.000003	0.000000	0.000000	0.000000
19.676223	23.598898	11.089254	-0.097894	0.068336	3.201509	0.000000	-0.015532	0.000000	0.000003	0.000000	0.000000	0.000000
20.010806	23.669488	11.053530	-0.229479	0.092790	3.196332	0.000000	0.000305	0.000000	0.000003	0.000000	0.000000	0.000000
20.308129	23.809878	11.006420	-0.304912	0.094417	3.196422	0.000000	0.008656	0.000000	0.000003	0.000000	0.000000	0.000000
20.857189	23.734057	11.125300	0.442186	-0.312210	3.174961	0.000000	-0.086714	0.000000	0.000003	-0.000000	0.000000	0.000000
21.406249	22.850200	11.700223	1.158049	-0.741075	3.101482	0.000000	-0.180546	0.000000	0.000003	-0.000000	0.000000	0.000000
21.955309	21.220738	12.772141	1.792114	-1.222726	2.977289	0.000000	-0.271175	0.000000	0.000003	-0.000000	0.000000	0.000000
22.504369	18.960767	14.417403	2.299593	-1.791468	2.804584	0.000000	-0.356994	0.000000	0.000002	-0.000000	0.000000	0.000000
22.950329	17.179874	15.894374	1.707897	-1.506452	2.662668	0.000000	-0.279801	0.000000	0.000002	-0.000000	0.000000	0.000000
23.391289	15.902924	17.071898	1.198929	-1.153751	2.555606	0.000000	-0.206248	0.000000	0.000002	-0.000000	0.000000	0.000000
23.832249	15.049085	17.913943	0.744735	-0.748555	2.480429	0.000000	-0.135045	0.000000	0.000002	-0.000000	0.000000	0.000000
24.273209	14.579347	18.382198	0.324567	-0.309301	2.436282	0.000000	-0.065380	0.000000	0.000002	-0.000000	0.000000	0.000000
24.715418	14.472363	18.455109	-0.045370	0.098701	2.422657	0.000000	-0.002400	0.000000	0.000002	0.000000	0.000000	0.000000
25.012741	14.505463	18.401253	-0.065956	0.082433	2.421944	0.000000	-0.002400	0.000000	0.000002	0.000000	0.000000	0.000000
25.346075	14.557127	18.352377	-0.089036	0.064195	2.421144	0.000000	-0.002400	0.000000	0.000002	0.000000	0.000000	0.000000
25.679408	14.624178	18.315660	-0.112116	0.045958	2.420343	0.000000	-0.002400	0.000000	0.000002	0.000000	0.000000	0.000000
26.013991	14.706655	18.291402	-0.015972	-0.120737	2.419516	0.000000	-0.022029	0.000000	0.000002	-0.000000	0.000000	0.000000
26.311314	14.722165	18.368101	-0.000092	-0.182272	2.412966	0.000000	-0.027946	0.000000	0.000002	-0.000000	0.000000	0.000000
26.752274	14.903658	18.329592	-0.413055	0.269271	2.415750	0.000000	0.040585	0.000000	0.000002	0.000000	0.000000	0.000000
27.193234	15.456265	17.896760	-0.844890	0.708562	2.448826	0.000000	0.109578	0.000000	0.000002	0.000000	0.000000	0.000000
27.634194	16.405233	17.089299	-1.315325	1.115614	2.512572	0.000000	0.179819	0.000000	0.000002	0.000000	0.000000	0.000000
28.075154	17.793919	15.943947	-1.845854	1.471907	2.607712	0.000000	0.252108	0.000000	0.000002	0.000000	0.000000	0.000000
28.521114	19.709900	14.495568	-2.465670	1.762143	2.736935	0.000000	0.327712	0.000000	0.000002	0.000000	0.000000	0.000000
29.070174	22.145117	12.881624	-1.943322	1.194675	2.894210	0.000000	0.244335	0.000000	0.000003	0.000000	0.000000	0.000000
29.619234	23.927500	11.840724	-1.283707	0.712301	3.004447	0.000000	0.156623	0.000000	0.000003	0.000000	0.000000	0.000000
30.168294	24.931152	11.298727	-0.533417	0.280662	3.065691	0.000000	0.066134	0.000000	0.000003	0.000000	0.000000	0.000000
30.717354	25.085178	11.217027	0.254550	-0.130985	3.076854	0.000000	-0.025529	0.000000	0.000003	-0.000000	0.000000	0.000000
31.015927	24.975993	11.285773	0.176681	-0.128571	3.071633	0.000000	-0.017490	0.000000	0.000003	-0.000000	0.000000	0.000000
31.349260	24.862794	11.381495	0.162918	-0.158595	3.065803	0.000000	-0.017490	0.000000	0.000003	-0.000000	0.000000	0.000000
31.682593	24.758769	11.497233	0.149156	-0.188619	3.059973	0.000000	-0.017490	0.000000	0.000003	-0.000000	0.000000	0.000000
32.017177	24.663581	11.633533	0.135341	-0.218755	3.054121	0.000000	-0.017490	0.000000	0.000003	-0.000000	0.000000	0.000000
32.314499	24.586751	11.771577	0.058826	-0.214779	3.048921	0.000000	-0.009524	0.000000	0.000003	-0.000000	0.000000	0.000000
32.863559	24.100976	12.246787	0.820677	-0.655826	3.018816	0.000000	-0.099974	0.000000	0.000002	-0.000000	0.000000	0.000000
33.412619	22.805632	13.228974	1.524559	-1.143586	2.939463	0.000000	-0.188651	0.000000	0.000002	-0.000000	0.000000	0.000000
33.961679	20.792217	14.788099	2.120755	-1.712801	2.812269	0.000000	-0.273983	0.000000	0.000002	-0.000000	0.000000	0.000000
34.510739	18.202948	17.035214	2.567151	-2.404015	2.639490	0.000000	-0.354454	0.000000	0.000002	-0.000000	0.000000	0.000000
34.956699	16.189828	19.045100	1.963150	-2.084042	2.497756	0.000000	-0.281540	0.000000	0.000002	-0.000000	0.000000	0.000000
35.397659	14.688765	20.706803	1.453843	-1.669995	2.388986	0.000000	-0.212262	0.000000	0.000002	-0.000000	0.000000	0.000000
35.838619	13.605994	21.968323	1.010958	-1.179966	2.310204	0.000000	-0.145400	0.000000	0.000002	-0.000000	0.000000	0.000000
36.279579	12.892047	22.772260	0.614260	-0.636249	2.260512	0.000000	-0.080195	0.000000	0.000002	-0.000000	0.000000	0.000000
36.721789	12.513613	23.082337	0.276207	-0.120241	2.239318	0.000000	-0.021394	0.000000	0.000002	-0.000000	0.000000	0.000000
37.019112	12.356971	23.157723	0.250635	-0.133308	2.232957	0.000000	-0.021394	0.000000	0.000002	-0.000000	0.000000	0.000000
37.352445	12.199438	23.251478	0.221965	-0.147958	2.225826	0.000000	-0.021394	0.000000	0.000001	-0.000000	0.000000	0.000000
37.685779	12.061018	23.355000	0.193295	-0.162608	2.218694	0.000000	-0.021394	0.000000	0.000001	-0.000000	0.000000	0.000000
38.020362	11.941300	23.468731	0.164518	-0.177312	2.211536	0.000000	-0.021394	0.000000	0.000001	-0.000000	0.000000	0.000000
38.317684	11.851073	23.578055	0.168007	-0.248199	2.205175	0.000000	-0.026802	0.000000	0.000001	-0.000000	0.000000	0.000000
38.758644	11.854074	23.535809	-0.174837	0.343638	2.207281	0.000000	0.036363	0.000000	0.000001	-0.000000	0.000000	0.000000
39.199604	12.161801	22.976537	-0.525668	0.919840	2.237306	0.000000	0.099943	0.000000	0.000001	-0.000000	0.000000	0.000000
39.640564	12.788314	21.925686	-0.900516	1.454190	2.295590	0.000000	0.164661	0.000000	0.000001	-0.000000	0.000000	0.000000
40.081524	13.762238	20.431068	-1.316506	1.922376	2.382799	0.000000	0.231254	0.000000	0.000001	-0.000000	0.000000	0.000000
40.527484	15.145629	18.538119	-1.796467	2.304373	2.501396	0.000000	0.300886	0.000000	0.000001	0.000000	0.000000	0.000000
41.076544	16.911259	16.411022	-1.400231	1.592565	2.646075	0.000000	0.225345	0.000000	0.000001	-0.000000	0.000000	0.000000
41.625604	18.184557	14.999072	-0.905090	0.994191	2.748117	0.000000	0.145806	0.000000	0.000001	-0.000000	0.000000	0.000000
42.174664	18.875581	14.201700	-0.346019	0.466632	2.805712	0.000000	0.063681	0.000000	0.000001	-0.000000	0.000000	0.000000
42.723724	18.935523	13.962109	0.237494	-0.027691	2.817839	0.000000	-0.019574	0.000000	0.000001	-0.000000	0.000000	0.000000
43.022297	18.828122	13.963246	0.171694	-0.012597	2.814193	0.000000	-0.012211	0.000000	0.000001	-0.000000	0.000000	0.000000
43.502297	18.675893	13.991842	0.145449	-0.046978	2.808332	0.000000	-0.012211	0.000000	0.000001	-0.000000	0.000000	0.000000
43.982297	18.548860	14.053444	0.119204	-0.081360	2.802470	0.000000	-0.012211	0.000000	0.000001	-0.000000	0.000000	0.000000
44.462297	18.447022	14.148053	0.092958	-0.115741	2.796609	0.000000	-0.012211	0.000000	0.000001	-0.000000	0.000000	0.000000
44.942297	18.370380	14.275667	0.066713	-0.150123	2.790748	0.000000	-0.012211	0.000000	0.000001	-0.000000	0.000000	0.000000
45.423547	18.319059	14.436571	-0.050364	-0.113066	2.784889	0.000000	0.001587	0.000000	0.000001	-0.000000	0.000000	0.000000
45.720870	18.353846	14.510006	-0.114590	-0.096013	2.785360	0.000000	0.008864	0.000000	0.000001	-0.000000	0.000000	0.000000
46.269930	18.170629	14.896158	0.446305	-0.611435	2.767659	0.000000	-0.073247	0.000000	0.000001	-0.000000	0.000000	0.000000
46.818990	17.385228	15.868755	0.975675	-1.170408	2.705165	0.000000	-0.154060	0.000000	0.000001	-0.000000	0.000000	0.000000
47.368050	16.053117	17.497075	1.436129	-1.812747	2.598985	0.000000	-0.232140	0.000000	0.000001	-0.000000	0.000000	0.000000
47.917110	14.268391	19.897097	1.795141	-2.584203	2.451003	0.000000	-0.306102	0.000000	0.000000	-0.000000	0.000000	0.000000
48.363070	12.879383	22.031038	1.330541	-2.180730	2.329784	0.000000	-0.237812	0.000000	0.000000	-0.000000	0.000000	0.000000
48.804030	11.886124	23.739660	0.930496	-1.679304	2.239377	0.000000	-0.172626	0.000000	0.000000	-0.000000	0.000000	0.000000
49.244990	11.225664	24.970554	0.572963	-1.101471	2.177254	0.000000	-0.109407	0.000000	0.000000	-0.000000	0.000000	0.000000
49.685950	10.867830	25.667716	0.241606	-0.473522	2.142706	0.000000	-0.047434	0.000000	0.000000	-0.000000	0.000000	0.000000
50.128160	10.796402	25.799143	-0.052352	0.112655	2.135353	0.000000	0.008763	0.000000	0.000000	-0.000000	0.000000	0.000000
50.425482	10.835743	25.735623	-0.079967	0.100984	2.137958	0.000000	0.008763	0.000000	-0.000000	-0.000000	0.000000	0.000000
50.758816	10.899374	25.672662	-0.110926	0.087900	2.140879	0.000000	0.008763	0.000000	-0.000000	-0.000000	0.000000	0.000000
51.092149	10.983644	25.618423	-0.141885	0.074816	2.143800	0.000000	0.008763	0.000000	-0.000000	-0.000000	0.000000	0.000000
51.426732	11.088761	25.573272	-0.083001	-0.145781	2.146710	0.000000	-0.008653	0.000000	-0.000000	-0.000000	0.000000	0.000000
51.724055	11.146144	25.663490	-0.082665	-0.220589	2.144137	0.000000	-0.013911	0.000000	-0.000000	-0.000000	0.000000	0.000000
52.165015	11.364542	25.572551	-0.414492	0.426033	2.151591	0.000000	0.047750	0.000000	-0.000000	-0.000000	0.000000	0.000000
52.605975	11.882797	24.917746	-0.765255	1.053270	2.186329	0.000000	0.109954	0.000000	-0.000000	-0.000000	0.000000	0.000000
53.046935	12.724587	23.728868	-1.150981	1.632584	2.248746	0.000000	0.173411	0.000000	-0.000000	-0.000000	0.000000	0.000000
53.487895	13.928372	22.060010	-1.589293	2.137617	2.339553	0.000000	0.238843	0.000000	-0.000001	-0.000000	0.000000	0.000000
53.933855	15.569777	19.962148	-2.104453	2.546724	2.461291	0.000000	0.307394	0.000000	-0.000001	-0.000000	0.000000	0.000000
54.482915	17.682976	17.601625	-1.721522	1.777861	2.609888	0.000000	0.233089	0.000000	-0.000001	-0.000000	0.000000	0.000000
55.031975	19.306003	16.011331	-1.216991	1.135631	2.716491	0.000000	0.154649	0.000000	-0.000001	-0.000000	0.000000	0.000000
55.581035	20.324216	15.077991	-0.626498	0.574289	2.779207	0.000000	0.073465	0.000000	-0.000001	-0.000000	0.000000	0.000000
56.130095	20.665693	14.735127	0.008248	0.053853	2.796925	0.000000	-0.009021	0.000000	-0.000001	-0.000000	0.000000	0.000000
56.428668	20.697334	14.686080	-0.060226	0.071918	2.796414	0.000000	-0.001713	0.000000	-0.000001	-0.000000	0.000000	0.000000
56.762001	20.742873	14.645739	-0.076390	0.049104	2.795843	0.000000	-0.001713	0.000000	-0.000001	-0.000000	0.000000	0.000000
57.095334	20.799187	14.620608	-0.092553	0.026289	2.795272	0.000000	-0.001713	0.000000	-0.000001	-0.000000	0.000000	0.000000
57.429918	20.866549	14.610678	-0.108777	0.003389	2.794699	0.000000	-0.001713	0.000000	-0.000001	-0.000000	0.000000	0.000000
57.727240	20.935520	14.614714	-0.177896	0.021225	2.794190	0.000000	0.005588	0.000000	-0.000001	-0.000000	0.000000	0.000000
58.276300	20.773636	14.872132	0.470988	-0.492828	2.774617	0.000000	-0.076780	0.000000	-0.000001	-0.000000	0.000000	0.000000
58.825360	19.913332	15.709890	1.086604	-1.041983	2.710127	0.000000	-0.157785	0.000000	-0.000001	-0.000000	0.000000	0.000000
59.374420	18.415375	17.187659	1.625467	-1.665357	2.601863	0.000000	-0.235992	0.000000	-0.000001	0.000000	0.000000	0.000000
59.923480	16.385574	19.410698	2.049516	-2.407350	2.451747	0.000000	-0.310014	0.000000	-0.000001	0.000000	0.000000	0.000000
60.369440	14.796755	21.386635	1.525794	-2.004700	2.328785	0.000000	-0.241726	0.000000	-0.000001	0.000000	0.000000	0.000000
60.810400	13.653807	22.943375	1.075994	-1.512208	2.236643	0.000000	-0.176589	0.000000	-0.000001	-0.000000	0.000000	0.000000
61.251360	12.884452	24.033660	0.675354	-0.950911	2.172753	0.000000	-0.113463	0.000000	-0.000001	-0.000000	0.000000	0.000000
61.692320	12.453539	24.607885	0.305568	-0.346348	2.136388	0.000000	-0.051629	0.000000	-0.000001	-0.000000	0.000000	0.000000
62.134530	12.341433	24.639388	-0.020093	0.213495	2.127139	0.000000	0.004400	0.000000	-0.000001	-0.000000	0.000000	0.000000
62.431853	12.360547	24.516185	-0.044194	0.200878	2.128448	0.000000	0.004400	0.000000	-0.000001	-0.000000	0.000000	0.000000
62.765186	12.399017	24.386982	-0.071214	0.186732	2.129914	0.000000	0.004400	0.000000	-0.000001	-0.000000	0.000000	0.000000
63.098520	12.455500	24.267209	-0.098235	0.172587	2.131381	0.000000	0.004400	0.000000	-0.000001	-0.000000	0.000000	0.000000
63.433103	12.530309	24.156470	-0.125356	0.158389	2.132853	0.000000	0.004400	0.000000	-0.000002	-0.000000	0.000000	0.000000
63.730426	12.612018	24.066035	-0.118529	0.086754	2.134161	0.000000	-0.000834	0.000000	-0.000002	-0.000000	0.000000	0.000000
64.171386	12.877090	23.724470	-0.484877	0.684894	2.147336	0.000000	0.060644	0.000000	-0.000002	-0.000000	0.000000	0.000000
64.612346	13.473763	22.867171	-0.873379	1.251872	2.187746	0.000000	0.122812	0.000000	-0.000002	-0.000000	0.000000	0.000000
65.053306	14.429296	21.533145	-1.301782	1.761891	2.255851	0.000000	0.186379	0.000000	-0.000002	-0.000000	0.000000	0.000000
65.494266	15.787347	19.783091	-1.789660	2.191745	2.352428	0.000000	0.252068	0.000000	-0.000002	-0.000000	0.000000	0.000000
65.940226	17.633129	17.671858	-2.363997	2.522634	2.480149	0.000000	0.321030	0.000000	-0.000002	-0.000000	0.000000	0.000000
66.489286	19.999021	15.309961	-1.919481	1.804468	2.636044	0.000000	0.245995	0.000000	-0.000002	-0.000000	0.000000	0.000000
67.038346	21.798986	13.661913	-1.339381	1.214831	2.749480	0.000000	0.166597	0.000000	-0.000002	-0.000000	0.000000	0.000000
67.587406	22.905885	12.610327	-0.664675	0.711723	2.818445	0.000000	0.084244	0.000000	-0.000002	-0.000000	0.000000	0.000000
68.136466	23.241533	12.080301	0.056981	0.259310	2.841716	0.000000	0.000396	0.000000	-0.000002	-0.000000	0.000000	0.000000
68.435038	23.247605	11.914610	-0.016593	0.264067	2.844051	0.000000	0.007821	0.000000	-0.000002	-0.000000	0.000000	0.000000
68.768372	23.263448	11.748541	-0.030935	0.234139	2.846658	0.000000	0.007821	0.000000	-0.000002	-0.000000	0.000000	0.000000
69.101705	23.288852	11.602424	-0.045278	0.204212	2.849265	0.000000	0.007821	0.000000	-0.000003	-0.000000	0.000000	0.000000
69.436288	23.323967	11.475824	-0.059674	0.174172	2.851882	0.000000	0.007821	0.000000	-0.000003	-0.000000	0.000000	0.000000
69.733611	23.363256	11.380190	-0.133512	0.177212	2.854208	0.000000	0.015279	0.000000	-0.000003	-0.000000	0.000000	0.000000
70.282671	23.108626	11.413417	0.594522	-0.238085	2.839408	0.000000	-0.069111	0.000000	-0.000003	0.000000	0.000000	0.000000
