#ParticleID	Turn	x[m]	xp	y[m]	yp	z[m]	dE[GeV]# s	beta_x	beta_y	alpha_x	alpha_y	D_x	D_y	D_px	D_py	orbit_x	orbit_px	orbit_y	orbit_py
0.300000	11.802388	25.062658	-0.009986	-0.026724	2.618346	0.000000	-0.000077	0.000000	-0.000002	0.000002	0.000000	0.000000
0.601250	11.816094	25.082383	-0.035513	-0.038753	2.618323	0.000000	-0.000077	0.000000	-0.000001	0.000002	0.000000	0.000000
0.898573	11.844703	25.108956	-0.031660	-0.112199	2.618299	0.000000	-0.006497	0.000000	-0.000000	0.000002	0.000000	0.000000
1.339533	12.024620	24.929357	-0.377899	0.517941	2.631728	0.000000	0.067464	0.000000	0.000000	0.000002	0.000000	0.000000
1.780493	12.516322	24.202334	-0.741403	1.124514	2.677908	0.000000	0.142194	0.000000	0.000001	0.000002	0.000000	0.000000
2.221453	13.342274	22.960966	-1.138779	1.679923	2.757367	0.000000	0.218544	0.000000	0.000002	0.000002	0.000000	0.000000
2.662413	14.540211	21.261734	-1.588183	2.158896	2.871009	0.000000	0.297382	0.000000	0.000003	0.000002	0.000000	0.000000
3.108373	16.185577	19.157035	-2.114431	2.540776	3.021990	0.000000	0.380097	0.000000	0.000004	0.000002	0.000000	0.000000
3.657433	18.295535	16.793085	-1.705673	1.790088	3.205414	0.000000	0.287060	0.000000	0.000005	0.000002	0.000000	0.000000
4.206493	19.887409	15.179046	-1.176435	1.166904	3.336279	0.000000	0.188931	0.000000	0.000006	0.000002	0.000000	0.000000
4.755553	20.848758	14.199954	-0.564099	0.626837	3.412265	0.000000	0.087451	0.000000	0.000007	0.000002	0.000000	0.000000
5.304613	21.111677	13.786070	0.088082	0.131417	3.432024	0.000000	-0.015580	0.000000	0.000008	0.000001	0.000000	0.000000
5.603185	21.096243	13.692735	0.018767	0.145170	3.430049	0.000000	-0.006614	0.000000	0.000008	0.000001	0.000000	0.000000
5.936519	21.089001	13.604240	0.002961	0.120313	3.427844	0.000000	-0.006614	0.000000	0.000009	0.000001	0.000000	0.000000
6.269852	21.092295	13.532317	-0.012845	0.095456	3.425639	0.000000	-0.006614	0.000000	0.000009	0.000001	0.000000	0.000000
6.604435	21.106199	13.476789	-0.028711	0.070506	3.423426	0.000000	-0.006614	0.000000	0.000010	0.000001	0.000000	0.000000
6.901758	21.127464	13.441455	-0.098007	0.083452	3.421459	0.000000	0.002325	0.000000	0.000010	0.000001	0.000000	0.000000
7.450818	20.875053	13.610798	0.555001	-0.393698	3.394536	0.000000	-0.100248	0.000000	0.000011	0.000001	0.000000	0.000000
7.999878	19.922942	14.316342	1.168807	-0.898890	3.311700	0.000000	-0.201042	0.000000	0.000011	0.000001	0.000000	0.000000
8.548938	18.338385	15.608339	1.700054	-1.468108	3.174422	0.000000	-0.298271	0.000000	0.000012	0.000000	0.000000	0.000000
9.097998	16.233306	17.578817	2.111218	-2.141896	2.985134	0.000000	-0.390209	0.000000	0.000012	-0.000000	0.000000	0.000000
9.543958	14.591017	19.334576	1.584469	-1.778495	2.829421	0.000000	-0.308511	0.000000	0.000012	0.000000	0.000000	0.000000
9.984918	13.396638	20.712930	1.134392	-1.335412	2.710624	0.000000	-0.230812	0.000000	0.000012	0.000001	0.000000	0.000000
10.425878	12.574924	21.672132	0.736143	-0.831568	2.625478	0.000000	-0.155740	0.000000	0.000012	0.000001	0.000000	0.000000
10.866838	12.088332	22.168538	0.371526	-0.289888	2.573013	0.000000	-0.082443	0.000000	0.000013	0.000001	0.000000	0.000000
11.309048	11.914499	22.179036	0.052993	0.210538	2.552611	0.000000	-0.016344	0.000000	0.000013	0.000002	0.000000	0.000000
11.606371	11.890427	22.058003	0.027968	0.196538	2.547751	0.000000	-0.016344	0.000000	0.000014	0.000002	0.000000	0.000000
12.086371	11.882970	21.880174	-0.012432	0.173937	2.539905	0.000000	-0.016344	0.000000	0.000015	0.000002	0.000000	0.000000
12.566371	11.914297	21.724044	-0.052832	0.151336	2.532059	0.000000	-0.016344	0.000000	0.000015	0.000002	0.000000	0.000000
13.046371	11.984408	21.589610	-0.093232	0.128734	2.524214	0.000000	-0.016344	0.000000	0.000016	0.000002	0.000000	0.000000
13.526371	12.093303	21.476874	-0.133633	0.106133	2.516368	0.000000	-0.016344	0.000000	0.000017	0.000002	0.000000	0.000000
14.007621	12.241418	21.385626	-0.174138	0.083473	2.508502	0.000000	-0.016344	0.000000	0.000017	0.000002	0.000000	0.000000
14.304943	12.352409	21.340152	-0.168876	0.017150	2.503642	0.000000	-0.022482	0.000000	0.000018	0.000001	0.000000	0.000000
14.745903	12.659815	21.091481	-0.530897	0.544634	2.509355	0.000000	0.048424	0.000000	0.000019	0.000002	0.000000	0.000000
15.186863	13.295942	20.386805	-0.917172	1.047337	2.546427	0.000000	0.119882	0.000000	0.000020	0.000002	0.000000	0.000000
15.627823	14.289855	19.258183	-1.345351	1.502387	2.615279	0.000000	0.192705	0.000000	0.000021	0.000003	0.000000	0.000000
16.068783	15.686961	17.756969	-1.834995	1.889080	2.716697	0.000000	0.267723	0.000000	0.000022	0.000004	0.000000	0.000000
16.514743	17.574754	15.929967	-2.413233	2.190562	2.853528	0.000000	0.346252	0.000000	0.000024	0.000004	0.000000	0.000000
17.063803	19.999489	13.890045	-1.976778	1.546666	3.019917	0.000000	0.258949	0.000000	0.000026	0.000003	0.000000	0.000000
17.612863	21.864968	12.492916	-1.400693	1.012936	3.137038	0.000000	0.167053	0.000000	0.000028	0.000002	0.000000	0.000000
18.161923	23.039423	11.639067	-0.725670	0.551355	3.202815	0.000000	0.072194	0.000000	0.000029	0.000002	0.000000	0.000000
18.710983	23.439895	11.267679	0.000610	0.129045	3.216079	0.000000	-0.023945	0.000000	0.000029	0.000001	0.000000	0.000000
19.009556	23.479910	11.181154	-0.073403	0.131315	3.211438	0.000000	-0.015544	0.000000	0.000029	0.000001	0.000000	0.000000
19.342889	23.533603	11.103720	-0.087676	0.100988	3.206256	0.000000	-0.015544	0.000000	0.000030	0.000001	0.000000	0.000000
19.676223	23.596812	11.046503	-0.101949	0.070662	3.201074	0.000000	-0.015544	0.000000	0.000030	0.000001	0.000000	0.000000
20.010806	23.670120	11.009266	-0.233551	0.094769	3.195893	0.000000	0.000290	0.000000	0.000030	0.000001	0.000000	0.000000
20.308129	23.812938	10.961014	-0.309000	0.096152	3.195979	0.000000	0.008638	0.000000	0.000030	0.000001	0.000000	0.000000
20.857189	23.741529	11.077282	0.438286	-0.309160	3.174512	0.000000	-0.086717	0.000000	0.000031	-0.000000	0.000000	0.000000
21.406249	22.861723	11.648039	1.154614	-0.736493	3.101036	0.000000	-0.180534	0.000000	0.000030	-0.000001	0.000000	0.000000
21.955309	21.235664	12.713939	1.789386	-1.216284	2.976853	0.000000	-0.271150	0.000000	0.000029	-0.000002	0.000000	0.000000
22.504369	18.978209	14.350904	2.297764	-1.782709	2.804166	0.000000	-0.356955	0.000000	0.000028	-0.000003	0.000000	0.000000
22.950329	17.199012	15.820727	1.705905	-1.499247	2.662267	0.000000	-0.279772	0.000000	0.000027	-0.000002	0.000000	0.000000
23.391289	15.923924	16.992703	1.196681	-1.148423	2.555216	0.000000	-0.206230	0.000000	0.000026	-0.000002	0.000000	0.000000
23.832249	15.072217	17.830969	0.742130	-0.745346	2.480046	0.000000	-0.135037	0.000000	0.000025	-0.000001	0.000000	0.000000
24.273209	14.604977	18.297385	0.321485	-0.308356	2.435900	0.000000	-0.065381	0.000000	0.000025	-0.000000	0.000000	0.000000
24.715418	14.500981	18.370484	-0.049006	0.097555	2.422272	0.000000	-0.002409	0.000000	0.000025	0.000000	0.000000	0.000000
25.012741	14.536233	18.317331	-0.069559	0.081216	2.421556	0.000000	-0.002409	0.000000	0.000025	0.000000	0.000000	0.000000
25.346075	14.590287	18.269293	-0.092601	0.062898	2.420753	0.000000	-0.002409	0.000000	0.000025	0.000000	0.000000	0.000000
25.679408	14.659702	18.233467	-0.115644	0.044581	2.419949	0.000000	-0.002409	0.000000	0.000026	0.000000	0.000000	0.000000
26.013991	14.744526	18.210156	-0.019155	-0.121536	2.419119	0.000000	-0.022035	0.000000	0.000026	0.000000	0.000000	0.000000
26.311314	14.761914	18.287353	-0.003136	-0.182939	2.412567	0.000000	-0.027950	0.000000	0.000026	0.000000	0.000000	0.000000
26.752274	14.946531	18.250396	-0.417121	0.266430	2.415347	0.000000	0.040571	0.000000	0.000026	0.000001	0.000000	0.000000
27.193234	15.503241	17.820985	-0.850164	0.703676	2.448415	0.000000	0.109554	0.000000	0.000026	0.000001	0.000000	0.000000
27.634194	16.457481	17.018655	-1.322049	1.108905	2.512146	0.000000	0.179784	0.000000	0.000027	0.000002	0.000000	0.000000
28.075154	17.852846	15.879914	-1.854334	1.463681	2.607268	0.000000	0.252062	0.000000	0.000028	0.000003	0.000000	0.000000
28.521114	19.777325	14.439415	-2.476312	1.752771	2.736466	0.000000	0.327654	0.000000	0.000030	0.000004	0.000000	0.000000
29.070174	22.223331	12.834527	-1.952211	1.187456	2.893713	0.000000	0.244292	0.000000	0.000031	0.000003	0.000000	0.000000
29.619234	24.014220	11.800612	-1.290214	0.706722	3.003930	0.000000	0.156597	0.000000	0.000032	0.000002	0.000000	0.000000
30.168294	25.023491	11.264027	-0.537083	0.276325	3.065164	0.000000	0.066125	0.000000	0.000033	0.000000	0.000000	0.000000
30.717354	25.179854	11.186553	0.253985	-0.134389	3.076327	0.000000	-0.025521	0.000000	0.000033	-0.000001	0.000000	0.000000
31.015927	25.071130	11.257411	0.175935	-0.132154	3.071107	0.000000	-0.017485	0.000000	0.000033	-0.000001	0.000000	0.000000
31.349260	24.958409	11.355556	0.162228	-0.162281	3.065278	0.000000	-0.017485	0.000000	0.000033	-0.000001	0.000000	0.000000
31.682593	24.854826	11.473786	0.148521	-0.192409	3.059450	0.000000	-0.017485	0.000000	0.000032	-0.000001	0.000000	0.000000
32.017177	24.760044	11.612658	0.134763	-0.222649	3.053600	0.000000	-0.017485	0.000000	0.000032	-0.000001	0.000000	0.000000
32.314499	24.683543	11.753045	0.058060	-0.218821	3.048401	0.000000	-0.009522	0.000000	0.000032	-0.000000	0.000000	0.000000
32.863559	24.196839	12.232503	0.823122	-0.659568	3.018302	0.000000	-0.099956	0.000000	0.000032	-0.000001	0.000000	0.000000
33.412619	22.897115	13.218759	1.530043	-1.147295	2.938965	0.000000	-0.188617	0.000000	0.000030	-0.000002	0.000000	0.000000
33.961679	20.876177	14.782059	2.128889	-1.716741	2.811795	0.000000	-0.273933	0.000000	0.000029	-0.000003	0.000000	0.000000
34.510739	18.276774	17.033755	2.577361	-2.408467	2.639049	0.000000	-0.354389	0.000000	0.000027	-0.000004	0.000000	0.000000
34.956699	16.255569	19.047855	1.971131	-2.088999	2.497343	0.000000	-0.281487	0.000000	0.000025	-0.000004	0.000000	0.000000
35.397659	14.748305	20.714069	1.459977	-1.675227	2.388596	0.000000	-0.212218	0.000000	0.000023	-0.000003	0.000000	0.000000
35.838619	13.660833	21.980236	1.015525	-1.185233	2.309832	0.000000	-0.145367	0.000000	0.000022	-0.000002	0.000000	0.000000
36.279579	12.943468	22.788746	0.617470	-0.641312	2.260154	0.000000	-0.080171	0.000000	0.000021	-0.000002	0.000000	0.000000
36.721789	12.562741	23.103125	0.278321	-0.124910	2.238969	0.000000	-0.021377	0.000000	0.000021	-0.000001	0.000000	0.000000
37.019112	12.404821	23.181288	0.252821	-0.137980	2.232613	0.000000	-0.021377	0.000000	0.000020	-0.000001	0.000000	0.000000
37.352445	12.245803	23.278160	0.224232	-0.152633	2.225488	0.000000	-0.021377	0.000000	0.000020	-0.000001	0.000000	0.000000
37.685779	12.105845	23.384800	0.195643	-0.167287	2.218362	0.000000	-0.021377	0.000000	0.000019	-0.000001	0.000000	0.000000
38.020362	11.984528	23.501663	0.166947	-0.181995	2.211210	0.000000	-0.021377	0.000000	0.000019	-0.000001	0.000000	0.000000
38.317684	11.892835	23.613772	0.170607	-0.252963	2.204855	0.000000	-0.026783	0.000000	0.000018	-0.000001	0.000000	0.000000
38.758644	11.893958	23.575296	-0.173161	0.339886	2.206968	0.000000	0.036374	0.000000	0.000018	-0.000001	0.000000	0.000000
39.199604	12.200585	23.018822	-0.524840	0.917271	2.236995	0.000000	0.099945	0.000000	0.000017	-0.000001	0.000000	0.000000
39.640564	12.826727	21.969670	-0.900498	1.452920	2.295279	0.000000	0.164655	0.000000	0.000017	-0.000000	0.000000	0.000000
40.081524	13.800990	20.475575	-1.317297	1.922463	2.382483	0.000000	0.231240	0.000000	0.000017	0.000000	0.000000	0.000000
40.527484	15.185463	18.581936	-1.798108	2.305823	2.501072	0.000000	0.300864	0.000000	0.000018	0.000001	0.000000	0.000000
41.076544	16.952069	16.453873	-1.400354	1.592883	2.645742	0.000000	0.225333	0.000000	0.000018	0.000000	0.000000	0.000000
41.625604	18.224659	15.042181	-0.903686	0.993400	2.747781	0.000000	0.145805	0.000000	0.000018	-0.000000	0.000000	0.000000
42.174664	18.913343	14.246308	-0.343187	0.464675	2.805379	0.000000	0.063691	0.000000	0.000018	-0.000001	0.000000	0.000000
42.723724	18.969478	14.009565	0.241554	-0.030952	2.817515	0.000000	-0.019553	0.000000	0.000017	-0.000001	0.000000	0.000000
43.022297	18.859700	14.012557	0.175677	-0.015665	2.813875	0.000000	-0.012192	0.000000	0.000017	-0.000001	0.000000	0.000000
43.502297	18.703644	14.044042	0.149441	-0.049929	2.808024	0.000000	-0.012192	0.000000	0.000016	-0.000001	0.000000	0.000000
43.982297	18.572774	14.108420	0.123204	-0.084192	2.802172	0.000000	-0.012192	0.000000	0.000015	-0.000001	0.000000	0.000000
44.462297	18.467092	14.205691	0.096968	-0.118456	2.796321	0.000000	-0.012192	0.000000	0.000015	-0.000001	0.000000	0.000000
44.942297	18.386596	14.335855	0.070731	-0.152719	2.790469	0.000000	-0.012192	0.000000	0.000014	-0.000001	0.000000	0.000000
45.423547	18.331404	14.499199	-0.046398	-0.115234	2.784620	0.000000	0.001605	0.000000	0.000013	-0.000001	0.000000	0.000000
45.720870	18.363827	14.573900	-0.110628	-0.097938	2.785097	0.000000	0.008881	0.000000	0.000013	-0.000001	0.000000	0.000000
46.269930	18.176112	14.963244	0.450489	-0.615357	2.767408	0.000000	-0.073223	0.000000	0.000012	-0.000002	0.000000	0.000000
46.818990	17.386128	15.941367	0.979785	-1.176608	2.704930	0.000000	-0.154028	0.000000	0.000011	-0.000002	0.000000	0.000000
47.368050	16.049678	17.577939	1.439875	-1.821666	2.598771	0.000000	-0.232100	0.000000	0.000010	-0.000002	0.000000	0.000000
47.917110	14.261160	19.989530	1.798259	-2.596477	2.450815	0.000000	-0.306056	0.000000	0.000008	-0.000003	0.000000	0.000000
48.363070	12.869452	22.133543	1.333499	-2.190947	2.329616	0.000000	-0.237770	0.000000	0.000007	-0.000003	0.000000	0.000000
48.804030	11.873602	23.850098	0.933434	-1.687008	2.239227	0.000000	-0.172589	0.000000	0.000006	-0.000002	0.000000	0.000000
49.244990	11.210511	25.086545	0.576015	-1.106312	2.177121	0.000000	-0.109373	0.000000	0.000005	-0.000002	0.000000	0.000000
49.685950	10.849882	25.786628	0.244912	-0.475279	2.142588	0.000000	-0.047403	0.000000	0.000004	-0.000002	0.000000	0.000000
50.128160	10.775362	25.918207	-0.048694	0.113772	2.135248	0.000000	0.008791	0.000000	0.000003	-0.000002	0.000000	0.000000
50.425482	10.812541	25.854008	-0.076352	0.102152	2.137863	0.000000	0.008791	0.000000	0.000003	-0.000002	0.000000	0.000000
50.758816	10.873779	25.790249	-0.107360	0.089125	2.140794	0.000000	0.008791	0.000000	0.000002	-0.000002	0.000000	0.000000
51.092149	10.955688	25.735175	-0.138368	0.076097	2.143724	0.000000	0.008791	0.000000	0.000001	-0.000002	0.000000	0.000000
51.426732	11.058469	25.689149	-0.079779	-0.145382	2.146645	0.000000	-0.008624	0.000000	0.000001	-0.000002	0.000000	0.000000
51.724055	11.113954	25.779114	-0.079582	-0.220419	2.144081	0.000000	-0.013882	0.000000	-0.000000	-0.000002	0.000000	0.000000
52.165015	11.329287	25.686675	-0.410598	0.429251	2.151548	0.000000	0.047777	0.000000	-0.000001	-0.000002	0.000000	0.000000
52.605975	11.843686	25.027736	-0.760372	1.059391	2.186298	0.000000	0.109981	0.000000	-0.000002	-0.000002	0.000000	0.000000
53.046935	12.680653	23.832278	-1.144886	1.641329	2.248728	0.000000	0.173437	0.000000	-0.000003	-0.000002	0.000000	0.000000
53.487895	13.878427	22.154693	-1.581707	2.148588	2.339548	0.000000	0.238869	0.000000	-0.000004	-0.000002	0.000000	0.000000
53.933855	15.512267	20.046230	-2.095014	2.559427	2.461297	0.000000	0.307420	0.000000	-0.000005	-0.000002	0.000000	0.000000
54.482915	17.615860	17.673594	-1.713570	1.787349	2.609910	0.000000	0.233114	0.000000	-0.000006	-0.000002	0.000000	0.000000
55.031975	19.231234	16.074327	-1.211088	1.142581	2.716527	0.000000	0.154673	0.000000	-0.000007	-0.000002	0.000000	0.000000
55.581035	20.244288	15.134516	-0.623061	0.579196	2.779258	0.000000	0.073488	0.000000	-0.000008	-0.000002	0.000000	0.000000
56.130095	20.583464	14.787220	0.008976	0.057066	2.796989	0.000000	-0.009000	0.000000	-0.000009	-0.000001	0.000000	0.000000
56.428668	20.614561	14.736154	-0.059343	0.075329	2.796484	0.000000	-0.001691	0.000000	-0.000009	-0.000001	0.000000	0.000000
56.762001	20.659532	14.693517	-0.075570	0.052581	2.795921	0.000000	-0.001691	0.000000	-0.000010	-0.000001	0.000000	0.000000
57.095334	20.715320	14.666046	-0.091796	0.029832	2.795358	0.000000	-0.001691	0.000000	-0.000010	-0.000001	0.000000	0.000000
57.429918	20.782197	14.653724	-0.108084	0.006998	2.794792	0.000000	-0.001691	0.000000	-0.000011	-0.000001	0.000000	0.000000
57.727240	20.850772	14.655595	-0.177042	0.025003	2.794290	0.000000	0.005611	0.000000	-0.000011	-0.000001	0.000000	0.000000
58.276300	20.689514	14.909489	0.469001	-0.490149	2.774729	0.000000	-0.076760	0.000000	-0.000012	-0.000001	0.000000	0.000000
58.825360	19.832896	15.744819	1.081917	-1.040213	2.710249	0.000000	-0.157770	0.000000	-0.000012	-0.000001	0.000000	0.000000
59.374420	18.341425	17.221083	1.618411	-1.664370	2.601993	0.000000	-0.235981	0.000000	-0.000013	-0.000000	0.000000	0.000000
59.923480	16.320452	19.443432	2.040589	-2.407075	2.451883	0.000000	-0.310006	0.000000	-0.000013	0.000000	0.000000	0.000000
60.369440	14.738709	21.418619	1.518800	-2.003295	2.328924	0.000000	-0.241715	0.000000	-0.000013	-0.000000	0.000000	0.000000
60.810400	13.601203	22.973646	1.070598	-1.509744	2.236788	0.000000	-0.176575	0.000000	-0.000013	-0.000001	0.000000	0.000000
61.251360	12.835995	24.061331	0.671309	-0.947501	2.172905	0.000000	-0.113445	0.000000	-0.000013	-0.000001	0.000000	0.000000
61.692320	12.408124	24.632187	0.302690	-0.342148	2.136550	0.000000	-0.051607	0.000000	-0.000014	-0.000001	0.000000	0.000000
62.134530	12.298096	24.659694	-0.022039	0.218238	2.127312	0.000000	0.004425	0.000000	-0.000014	-0.000002	0.000000	0.000000
62.431853	12.318393	24.533675	-0.046227	0.205607	2.128628	0.000000	0.004425	0.000000	-0.000015	-0.000002	0.000000	0.000000
62.765186	12.358250	24.401324	-0.073345	0.191446	2.130104	0.000000	0.004425	0.000000	-0.000015	-0.000002	0.000000	0.000000
63.098520	12.416186	24.278414	-0.100462	0.177285	2.131580	0.000000	0.004425	0.000000	-0.000016	-0.000002	0.000000	0.000000
63.433103	12.492519	24.164537	-0.127682	0.163071	2.133061	0.000000	0.004425	0.000000	-0.000016	-0.000002	0.000000	0.000000
63.730426	12.575636	24.071323	-0.121026	0.091399	2.134377	0.000000	-0.000810	0.000000	-0.000017	-0.000002	0.000000	0.000000
64.171386	12.842566	23.725636	-0.486610	0.689558	2.147564	0.000000	0.060673	0.000000	-0.000017	-0.000002	0.000000	0.000000
64.612346	13.440460	22.864294	-0.874426	1.256343	2.187989	0.000000	0.122848	0.000000	-0.000018	-0.000002	0.000000	0.000000
65.053306	14.396633	21.526487	-1.302192	1.765965	2.256113	0.000000	0.186421	0.000000	-0.000020	-0.000003	0.000000	0.000000
65.494266	15.754770	19.773083	-1.789451	2.195237	2.352711	0.000000	0.252117	0.000000	-0.000021	-0.000003	0.000000	0.000000
65.940226	17.600084	17.659059	-2.363156	2.525378	2.480457	0.000000	0.321087	0.000000	-0.000023	-0.000004	0.000000	0.000000
66.489286	19.965787	15.294216	-1.919984	1.807124	2.636383	0.000000	0.246042	0.000000	-0.000025	-0.000003	0.000000	0.000000
67.038346	21.767030	13.643214	-1.341194	1.217587	2.749843	0.000000	0.166632	0.000000	-0.000026	-0.000002	0.000000	0.000000
67.587406	22.876583	12.588456	-0.667669	0.714777	2.818825	0.000000	0.084267	0.000000	-0.000027	-0.000002	0.000000	0.000000
68.136466	23.216072	12.054815	0.053017	0.262879	2.842105	0.000000	0.000407	0.000000	-0.000028	-0.000001	0.000000	0.000000
68.435038	23.224485	11.887061	-0.020518	0.267469	2.844445	0.000000	0.007835	0.000000	-0.000028	-0.000001	0.000000	0.000000
68.768372	23.242949	11.718765	-0.034876	0.237421	2.847056	0.000000	0.007835	0.000000	-0.000028	-0.000001	0.000000	0.000000
69.101705	23.270986	11.570500	-0.049235	0.207373	2.849668	0.000000	0.007835	0.000000	-0.000028	-0.000001	0.000000	0.000000
69.436288	23.308755	11.441824	-0.063648	0.177213	2.852290	0.000000	0.007835	0.000000	-0.000029	-0.000001	0.000000	0.000000
69.733611	23.350411	11.344414	-0.137480	0.180059	2.854620	0.000000	0.015295	0.000000	-0.000029	-0.000001	0.000000	0.000000
70.282671	23.100336	11.373955	0.590244	-0.234178	2.839825	0.000000	-0.069108	0.000000	-0.000029	0.000000	0.000000	0.000000
