#ParticleID	Turn	x[m]	xp	y[m]	yp	z[m]	dE[GeV]# s	beta_x	beta_y	alpha_x	alpha_y	D_x	D_y	D_px	D_py	orbit_x	orbit_px	orbit_y	orbit_py
0.300000	11.803480	25.059120	-0.010051	-0.026784	2.618294	0.000000	-0.000056	0.000000	-0.000003	0.000002	0.000000	0.000000
0.601250	11.817225	25.078881	-0.035576	-0.038814	2.618276	0.000000	-0.000056	0.000000	-0.000002	0.000002	0.000000	0.000000
0.898573	11.845870	25.105492	-0.031718	-0.112254	2.618259	0.000000	-0.006477	0.000000	-0.000001	0.000002	0.000000	0.000000
1.339533	12.025851	24.925981	-0.377985	0.517795	2.631696	0.000000	0.067484	0.000000	-0.000001	0.000002	0.000000	0.000000
1.780493	12.517642	24.199124	-0.741521	1.124285	2.677886	0.000000	0.142213	0.000000	0.000000	0.000002	0.000000	0.000000
2.221453	13.343714	22.957991	-1.138935	1.679620	2.757353	0.000000	0.218562	0.000000	0.000001	0.000002	0.000000	0.000000
2.662413	14.541808	21.259054	-1.588383	2.158534	2.871003	0.000000	0.297400	0.000000	0.000002	0.000002	0.000000	0.000000
3.108373	16.187376	19.154699	-2.114685	2.540370	3.021992	0.000000	0.380115	0.000000	0.000003	0.000002	0.000000	0.000000
3.657433	18.297585	16.791140	-1.705876	1.789778	3.205426	0.000000	0.287078	0.000000	0.000004	0.000002	0.000000	0.000000
4.206493	19.889648	15.177400	-1.176573	1.166667	3.336301	0.000000	0.188948	0.000000	0.000005	0.000002	0.000000	0.000000
4.755553	20.851108	14.198536	-0.564162	0.626655	3.412297	0.000000	0.087467	0.000000	0.000006	0.000002	0.000000	0.000000
5.304613	21.114053	13.784826	0.088098	0.131279	3.432064	0.000000	-0.015565	0.000000	0.000007	0.000001	0.000000	0.000000
5.603185	21.098613	13.691575	0.018778	0.145028	3.430094	0.000000	-0.006598	0.000000	0.000007	0.000001	0.000000	0.000000
5.936519	21.091362	13.603176	0.002974	0.120170	3.427894	0.000000	-0.006598	0.000000	0.000008	0.000001	0.000000	0.000000
6.269852	21.094648	13.531348	-0.012831	0.095312	3.425694	0.000000	-0.006598	0.000000	0.000008	0.000001	0.000000	0.000000
6.604435	21.108541	13.475916	-0.028694	0.070361	3.423486	0.000000	-0.006598	0.000000	0.000009	0.000001	0.000000	0.000000
6.901758	21.129796	13.440669	-0.097995	0.083304	3.421524	0.000000	0.002341	0.000000	0.000009	0.000001	0.000000	0.000000
7.450818	20.877329	13.610164	0.555090	-0.393827	3.394609	0.000000	-0.100234	0.000000	0.000010	0.000001	0.000000	0.000000
7.999878	19.925082	14.315842	1.168967	-0.899009	3.311780	0.000000	-0.201031	0.000000	0.000010	0.000001	0.000000	0.000000
8.548938	18.340316	15.607969	1.700273	-1.468225	3.174507	0.000000	-0.298262	0.000000	0.000011	0.000000	0.000000	0.000000
9.097998	16.234971	17.578579	2.111481	-2.142021	2.985224	0.000000	-0.390203	0.000000	0.000011	0.000000	0.000000	0.000000
9.543958	14.592471	19.334459	1.584679	-1.778639	2.829514	0.000000	-0.308503	0.000000	0.000011	0.000000	0.000000	0.000000
9.984918	13.397927	20.712945	1.134560	-1.335567	2.710721	0.000000	-0.230801	0.000000	0.000011	0.000001	0.000000	0.000000
10.425878	12.576081	21.672286	0.736276	-0.831728	2.625580	0.000000	-0.155727	0.000000	0.000012	0.000001	0.000000	0.000000
10.866838	12.089385	22.168833	0.371630	-0.290046	2.573121	0.000000	-0.082427	0.000000	0.000012	0.000001	0.000000	0.000000
11.309048	11.915471	22.179467	0.053075	0.210389	2.552726	0.000000	-0.016326	0.000000	0.000013	0.000002	0.000000	0.000000
11.606371	11.891350	22.058522	0.028052	0.196390	2.547872	0.000000	-0.016326	0.000000	0.000013	0.000002	0.000000	0.000000
12.086371	11.883810	21.880836	-0.012345	0.173791	2.540035	0.000000	-0.016326	0.000000	0.000014	0.000002	0.000000	0.000000
12.566371	11.915052	21.724845	-0.052742	0.151191	2.532198	0.000000	-0.016326	0.000000	0.000015	0.000002	0.000000	0.000000
13.046371	11.985076	21.590549	-0.093140	0.128591	2.524361	0.000000	-0.016326	0.000000	0.000016	0.000002	0.000000	0.000000
13.526371	12.093881	21.477949	-0.133537	0.105992	2.516524	0.000000	-0.016326	0.000000	0.000016	0.000002	0.000000	0.000000
14.007621	12.241902	21.386836	-0.174039	0.083333	2.508666	0.000000	-0.016326	0.000000	0.000017	0.000002	0.000000	0.000000
14.304943	12.352833	21.341445	-0.168775	0.017008	2.503812	0.000000	-0.022465	0.000000	0.000018	0.000002	0.000000	0.000000
14.745903	12.660153	21.092883	-0.530801	0.544530	2.509534	0.000000	0.048446	0.000000	0.000019	0.000002	0.000000	0.000000
15.186863	13.296198	20.388279	-0.917079	1.047276	2.546617	0.000000	0.119909	0.000000	0.000020	0.000003	0.000000	0.000000
15.627823	14.290027	19.259691	-1.345255	1.502371	2.615482	0.000000	0.192737	0.000000	0.000021	0.000003	0.000000	0.000000
16.068783	15.687045	17.758471	-1.834892	1.889110	2.716915	0.000000	0.267760	0.000000	0.000022	0.000004	0.000000	0.000000
16.514743	17.574743	15.931422	-2.413119	2.190637	2.853764	0.000000	0.346296	0.000000	0.000024	0.000004	0.000000	0.000000
17.063803	19.999344	13.891439	-1.976651	1.546704	3.020174	0.000000	0.258985	0.000000	0.000026	0.000003	0.000000	0.000000
17.612863	21.864681	12.494288	-1.400563	1.012938	3.137313	0.000000	0.167080	0.000000	0.000028	0.000003	0.000000	0.000000
18.161923	23.038995	11.640455	-0.725546	0.551322	3.203101	0.000000	0.072212	0.000000	0.000029	0.000002	0.000000	0.000000
18.710983	23.439338	11.269123	0.000721	0.128975	3.216373	0.000000	-0.023937	0.000000	0.000029	0.000001	0.000000	0.000000
19.009556	23.479286	11.182638	-0.073292	0.131252	3.211734	0.000000	-0.015535	0.000000	0.000030	0.000001	0.000000	0.000000
19.342889	23.532905	11.105243	-0.087565	0.100931	3.206556	0.000000	-0.015535	0.000000	0.000030	0.000001	0.000000	0.000000
19.676223	23.596039	11.048064	-0.101838	0.070609	3.201377	0.000000	-0.015535	0.000000	0.000030	0.000001	0.000000	0.000000
20.010806	23.669273	11.010861	-0.233435	0.094728	3.196199	0.000000	0.000300	0.000000	0.000030	0.000001	0.000000	0.000000
20.308129	23.812022	10.962632	-0.308882	0.096119	3.196288	0.000000	0.008650	0.000000	0.000031	0.000001	0.000000	0.000000
20.857189	23.740501	11.078961	0.438372	-0.309239	3.174824	0.000000	-0.086716	0.000000	0.000031	-0.000000	0.000000	0.000000
21.406249	22.860622	11.649832	1.154661	-0.736623	3.101346	0.000000	-0.180543	0.000000	0.000031	-0.000001	0.000000	0.000000
21.955309	21.234534	12.715908	1.789390	-1.216475	2.977155	0.000000	-0.271168	0.000000	0.000030	-0.000002	0.000000	0.000000
22.504369	18.977098	14.353122	2.297726	-1.782975	2.804456	0.000000	-0.356983	0.000000	0.000028	-0.000003	0.000000	0.000000
22.950329	17.197924	15.823158	1.705890	-1.499459	2.662546	0.000000	-0.279793	0.000000	0.000027	-0.000002	0.000000	0.000000
23.391289	15.922839	16.995294	1.196689	-1.148571	2.555487	0.000000	-0.206244	0.000000	0.000026	-0.000002	0.000000	0.000000
23.832249	15.071113	17.833661	0.742162	-0.745424	2.480312	0.000000	-0.135044	0.000000	0.000026	-0.000001	0.000000	0.000000
24.273209	14.603835	18.300113	0.321542	-0.308360	2.436165	0.000000	-0.065381	0.000000	0.000026	-0.000000	0.000000	0.000000
24.715418	14.499777	18.373182	-0.048926	0.097618	2.422539	0.000000	-0.002403	0.000000	0.000026	0.000000	0.000000	0.000000
25.012741	14.534982	18.319991	-0.069480	0.081282	2.421824	0.000000	-0.002403	0.000000	0.000026	0.000000	0.000000	0.000000
25.346075	14.588984	18.271908	-0.092524	0.062967	2.421023	0.000000	-0.002403	0.000000	0.000026	0.000000	0.000000	0.000000
25.679408	14.658348	18.236036	-0.115568	0.044651	2.420222	0.000000	-0.002403	0.000000	0.000026	0.000000	0.000000	0.000000
26.013991	14.743122	18.212677	-0.019093	-0.121483	2.419393	0.000000	-0.022031	0.000000	0.000026	0.000000	0.000000	0.000000
26.311314	14.760474	18.289842	-0.003079	-0.182890	2.412843	0.000000	-0.027946	0.000000	0.000026	0.000000	0.000000	0.000000
26.752274	14.945024	18.252812	-0.417029	0.266546	2.415626	0.000000	0.040581	0.000000	0.000027	0.000001	0.000000	0.000000
27.193234	15.501636	17.823270	-0.850032	0.703853	2.448699	0.000000	0.109571	0.000000	0.000027	0.000001	0.000000	0.000000
27.634194	16.455739	17.020760	-1.321870	1.109136	2.512440	0.000000	0.179809	0.000000	0.000028	0.000002	0.000000	0.000000
28.075154	17.850923	15.881796	-1.854101	1.463954	2.607575	0.000000	0.252095	0.000000	0.000029	0.000003	0.000000	0.000000
28.521114	19.775166	14.441039	-2.476014	1.753075	2.736789	0.000000	0.327695	0.000000	0.000030	0.000004	0.000000	0.000000
29.070174	22.220876	12.835854	-1.951972	1.187695	2.894055	0.000000	0.244323	0.000000	0.000032	0.000003	0.000000	0.000000
29.619234	24.011544	11.801705	-1.290053	0.706911	3.004286	0.000000	0.156616	0.000000	0.000033	0.000002	0.000000	0.000000
30.168294	25.020686	11.264933	-0.537011	0.276480	3.065527	0.000000	0.066132	0.000000	0.000034	0.000001	0.000000	0.000000
30.717354	25.177021	11.187302	0.253964	-0.134258	3.076691	0.000000	-0.025525	0.000000	0.000034	-0.000001	0.000000	0.000000
31.015927	25.068305	11.258081	0.175921	-0.132019	3.071470	0.000000	-0.017489	0.000000	0.000034	-0.000000	0.000000	0.000000
31.349260	24.955594	11.356135	0.162212	-0.162144	3.065640	0.000000	-0.017489	0.000000	0.000034	-0.000000	0.000000	0.000000
31.682593	24.852022	11.474272	0.148504	-0.192268	3.059811	0.000000	-0.017489	0.000000	0.000034	-0.000000	0.000000	0.000000
32.017177	24.757253	11.613048	0.134744	-0.222505	3.053959	0.000000	-0.017489	0.000000	0.000033	-0.000000	0.000000	0.000000
32.314499	24.680763	11.753349	0.058048	-0.218675	3.048760	0.000000	-0.009525	0.000000	0.000033	-0.000000	0.000000	0.000000
32.863559	24.194124	12.232648	0.823019	-0.659422	3.018656	0.000000	-0.099971	0.000000	0.000033	-0.000001	0.000000	0.000000
33.412619	22.894560	13.218738	1.529856	-1.147139	2.939307	0.000000	-0.188643	0.000000	0.000032	-0.000003	0.000000	0.000000
33.961679	20.873867	14.781857	2.128632	-1.716564	2.812121	0.000000	-0.273969	0.000000	0.000030	-0.000003	0.000000	0.000000
34.510739	18.274776	17.033341	2.577051	-2.408256	2.639352	0.000000	-0.354436	0.000000	0.000028	-0.000004	0.000000	0.000000
34.956699	16.253818	19.047248	1.970885	-2.088782	2.497627	0.000000	-0.281526	0.000000	0.000026	-0.000004	0.000000	0.000000
35.397659	14.746747	20.713271	1.459783	-1.675013	2.388864	0.000000	-0.212250	0.000000	0.000024	-0.000003	0.000000	0.000000
35.838619	13.659426	21.979255	1.015374	-1.185032	2.310088	0.000000	-0.145392	0.000000	0.000023	-0.000002	0.000000	0.000000
36.279579	12.942178	22.787597	0.617356	-0.641134	2.260400	0.000000	-0.080189	0.000000	0.000022	-0.000002	0.000000	0.000000
36.721789	12.561538	23.101831	0.278235	-0.124759	2.239208	0.000000	-0.021390	0.000000	0.000022	-0.000001	0.000000	0.000000
37.019112	12.403669	23.179904	0.252733	-0.137829	2.232849	0.000000	-0.021390	0.000000	0.000021	-0.000001	0.000000	0.000000
37.352445	12.244710	23.276675	0.224143	-0.152482	2.225719	0.000000	-0.021390	0.000000	0.000021	-0.000001	0.000000	0.000000
37.685779	12.104812	23.383214	0.195553	-0.167136	2.218589	0.000000	-0.021390	0.000000	0.000020	-0.000001	0.000000	0.000000
38.020362	11.983556	23.499977	0.166855	-0.181844	2.211433	0.000000	-0.021390	0.000000	0.000020	-0.000001	0.000000	0.000000
38.317684	11.891919	23.611996	0.170511	-0.252808	2.205074	0.000000	-0.026797	0.000000	0.000019	-0.000001	0.000000	0.000000
38.758644	11.893117	23.573404	-0.173237	0.339992	2.207182	0.000000	0.036366	0.000000	0.000019	-0.000001	0.000000	0.000000
39.199604	12.199804	23.016861	-0.524900	0.917323	2.237207	0.000000	0.099943	0.000000	0.000019	-0.000000	0.000000	0.000000
39.640564	12.825992	21.967688	-0.900544	1.452916	2.295491	0.000000	0.164658	0.000000	0.000019	0.000000	0.000000	0.000000
40.081524	13.800291	20.473621	-1.317331	1.922403	2.382698	0.000000	0.231249	0.000000	0.000019	0.000001	0.000000	0.000000
40.527484	15.184790	18.580061	-1.798132	2.305709	2.501292	0.000000	0.300879	0.000000	0.000019	0.000001	0.000000	0.000000
41.076544	16.951440	16.452093	-1.400409	1.592822	2.645967	0.000000	0.225340	0.000000	0.000019	0.000000	0.000000	0.000000
41.625604	18.224105	15.040440	-0.903768	0.993389	2.748008	0.000000	0.145805	0.000000	0.000019	-0.000000	0.000000	0.000000
42.174664	18.912891	14.244552	-0.343289	0.464713	2.805604	0.000000	0.063684	0.000000	0.000019	-0.000001	0.000000	0.000000
42.723724	18.969147	14.007741	0.241438	-0.030863	2.817734	0.000000	-0.019567	0.000000	0.000018	-0.000001	0.000000	0.000000
43.022297	18.859437	14.010682	0.175563	-0.015584	2.814090	0.000000	-0.012206	0.000000	0.000018	-0.000001	0.000000	0.000000
43.502297	18.703490	14.042092	0.149327	-0.049852	2.808231	0.000000	-0.012206	0.000000	0.000017	-0.000001	0.000000	0.000000
43.982297	18.572729	14.106399	0.123091	-0.084120	2.802373	0.000000	-0.012206	0.000000	0.000017	-0.000001	0.000000	0.000000
44.462297	18.467155	14.203603	0.096855	-0.118388	2.796515	0.000000	-0.012206	0.000000	0.000016	-0.000001	0.000000	0.000000
44.942297	18.386767	14.333704	0.070619	-0.152656	2.790656	0.000000	-0.012206	0.000000	0.000015	-0.000001	0.000000	0.000000
45.423547	18.331681	14.496990	-0.046510	-0.115186	2.784800	0.000000	0.001591	0.000000	0.000015	-0.000001	0.000000	0.000000
45.720870	18.364171	14.571663	-0.110741	-0.097899	2.785273	0.000000	0.008868	0.000000	0.000014	-0.000001	0.000000	0.000000
46.269930	18.176572	14.960927	0.450391	-0.615250	2.767576	0.000000	-0.073241	0.000000	0.000013	-0.000002	0.000000	0.000000
46.818990	17.386684	15.938892	0.979709	-1.176424	2.705086	0.000000	-0.154051	0.000000	0.000012	-0.000002	0.000000	0.000000
47.368050	16.050302	17.575215	1.439826	-1.821393	2.598913	0.000000	-0.232129	0.000000	0.000011	-0.000003	0.000000	0.000000
47.917110	14.261822	19.986448	1.798240	-2.596095	2.450940	0.000000	-0.306089	0.000000	0.000009	-0.000003	0.000000	0.000000
48.363070	12.870134	22.130151	1.333472	-2.190636	2.329727	0.000000	-0.237800	0.000000	0.000008	-0.000003	0.000000	0.000000
48.804030	11.874314	23.846469	0.933396	-1.686782	2.239326	0.000000	-0.172616	0.000000	0.000007	-0.000002	0.000000	0.000000
49.244990	11.211261	25.082758	0.575964	-1.106181	2.177207	0.000000	-0.109398	0.000000	0.000006	-0.000002	0.000000	0.000000
49.685950	10.850684	25.782770	0.244847	-0.475249	2.142665	0.000000	-0.047426	0.000000	0.000005	-0.000002	0.000000	0.000000
50.128160	10.776231	25.914368	-0.048776	0.113710	2.135315	0.000000	0.008770	0.000000	0.000004	-0.000002	0.000000	0.000000
50.425482	10.813458	25.850207	-0.076432	0.102088	2.137923	0.000000	0.008770	0.000000	0.000004	-0.000002	0.000000	0.000000
50.758816	10.874748	25.786491	-0.107438	0.089059	2.140847	0.000000	0.008770	0.000000	0.000003	-0.000002	0.000000	0.000000
51.092149	10.956708	25.731462	-0.138444	0.076030	2.143771	0.000000	0.008770	0.000000	0.000002	-0.000002	0.000000	0.000000
51.426732	11.059538	25.685482	-0.079844	-0.145422	2.146684	0.000000	-0.008645	0.000000	0.000001	-0.000002	0.000000	0.000000
51.724055	11.115061	25.775471	-0.079642	-0.220451	2.144114	0.000000	-0.013903	0.000000	0.000001	-0.000002	0.000000	0.000000
52.165015	11.330458	25.683103	-0.410684	0.429123	2.151572	0.000000	0.047757	0.000000	-0.000000	-0.000002	0.000000	0.000000
52.605975	11.844946	25.024317	-0.760489	1.059173	2.186314	0.000000	0.109961	0.000000	-0.000001	-0.000002	0.000000	0.000000
53.046935	12.682031	23.829087	-1.145039	1.641031	2.248734	0.000000	0.173418	0.000000	-0.000002	-0.000002	0.000000	0.000000
53.487895	13.879958	22.151794	-1.581902	2.148224	2.339545	0.000000	0.238849	0.000000	-0.000003	-0.000002	0.000000	0.000000
53.933855	15.513995	20.043680	-2.095261	2.559013	2.461286	0.000000	0.307400	0.000000	-0.000004	-0.000002	0.000000	0.000000
54.482915	17.617834	17.671441	-1.713768	1.787036	2.609888	0.000000	0.233095	0.000000	-0.000005	-0.000002	0.000000	0.000000
55.031975	19.233393	16.072473	-1.211224	1.142346	2.716495	0.000000	0.154654	0.000000	-0.000006	-0.000002	0.000000	0.000000
55.581035	20.246557	15.132885	-0.623124	0.579022	2.779215	0.000000	0.073471	0.000000	-0.000007	-0.000002	0.000000	0.000000
56.130095	20.585760	14.785752	0.008990	0.056941	2.796937	0.000000	-0.009015	0.000000	-0.000008	-0.000001	0.000000	0.000000
56.428668	20.616852	14.734763	-0.059333	0.075199	2.796428	0.000000	-0.001707	0.000000	-0.000008	-0.000001	0.000000	0.000000
56.762001	20.661816	14.692214	-0.075558	0.052449	2.795859	0.000000	-0.001707	0.000000	-0.000009	-0.000001	0.000000	0.000000
57.095334	20.717596	14.664831	-0.091783	0.029699	2.795291	0.000000	-0.001707	0.000000	-0.000009	-0.000001	0.000000	0.000000
57.429918	20.784463	14.652598	-0.108069	0.006863	2.794720	0.000000	-0.001707	0.000000	-0.000010	-0.000001	0.000000	0.000000
57.727240	20.853029	14.654551	-0.177031	0.024863	2.794213	0.000000	0.005594	0.000000	-0.000010	-0.000002	0.000000	0.000000
58.276300	20.691717	14.908583	0.469087	-0.490262	2.774644	0.000000	-0.076774	0.000000	-0.000011	-0.000001	0.000000	0.000000
58.825360	19.834967	15.744026	1.082071	-1.040308	2.710157	0.000000	-0.157781	0.000000	-0.000012	-0.000001	0.000000	0.000000
59.374420	18.343293	17.220387	1.618623	-1.664452	2.601897	0.000000	-0.235989	0.000000	-0.000012	-0.000000	0.000000	0.000000
59.923480	16.322062	19.442824	2.040844	-2.407152	2.451782	0.000000	-0.310011	0.000000	-0.000012	-0.000000	0.000000	0.000000
60.369440	14.740114	21.418091	1.519004	-2.003399	2.328822	0.000000	-0.241723	0.000000	-0.000012	-0.000000	0.000000	0.000000
60.810400	13.602447	22.973220	1.070761	-1.509870	2.236681	0.000000	-0.176584	0.000000	-0.000012	-0.000001	0.000000	0.000000
61.251360	12.837110	24.061024	0.671439	-0.947644	2.172794	0.000000	-0.113457	0.000000	-0.000013	-0.000001	0.000000	0.000000
61.692320	12.409137	24.632011	0.302792	-0.342300	2.136432	0.000000	-0.051623	0.000000	-0.000013	-0.000001	0.000000	0.000000
62.134530	12.299029	24.659654	-0.021958	0.218083	2.127187	0.000000	0.004407	0.000000	-0.000014	-0.000002	0.000000	0.000000
62.431853	12.319278	24.533728	-0.046144	0.205452	2.128498	0.000000	0.004407	0.000000	-0.000014	-0.000002	0.000000	0.000000
62.765186	12.359079	24.401480	-0.073260	0.191292	2.129968	0.000000	0.004407	0.000000	-0.000015	-0.000002	0.000000	0.000000
63.098520	12.416957	24.278672	-0.100375	0.177132	2.131437	0.000000	0.004407	0.000000	-0.000015	-0.000002	0.000000	0.000000
63.433103	12.493231	24.164896	-0.127592	0.162919	2.132912	0.000000	0.004407	0.000000	-0.000016	-0.000002	0.000000	0.000000
63.730426	12.576295	24.071773	-0.120933	0.091247	2.134223	0.000000	-0.000828	0.000000	-0.000016	-0.000002	0.000000	0.000000
64.171386	12.843148	23.726214	-0.486529	0.689422	2.147401	0.000000	0.060651	0.000000	-0.000017	-0.000002	0.000000	0.000000
64.612346	13.440975	22.864983	-0.874354	1.256229	2.187816	0.000000	0.122821	0.000000	-0.000018	-0.000002	0.000000	0.000000
65.053306	14.397087	21.527264	-1.302125	1.765878	2.255927	0.000000	0.186390	0.000000	-0.000019	-0.000003	0.000000	0.000000
65.494266	15.755167	19.773924	-1.789387	2.195182	2.352510	0.000000	0.252081	0.000000	-0.000021	-0.000003	0.000000	0.000000
65.940226	17.600423	17.659935	-2.363091	2.525356	2.480239	0.000000	0.321046	0.000000	-0.000023	-0.000004	0.000000	0.000000
66.489286	19.966042	15.295123	-1.919897	1.807088	2.636144	0.000000	0.246008	0.000000	-0.000025	-0.000003	0.000000	0.000000
67.038346	21.767180	13.644169	-1.341091	1.217534	2.749587	0.000000	0.166606	0.000000	-0.000026	-0.000002	0.000000	0.000000
67.587406	22.876615	12.589481	-0.667557	0.714703	2.818557	0.000000	0.084249	0.000000	-0.000027	-0.000002	0.000000	0.000000
68.136466	23.215982	12.055934	0.053129	0.262779	2.841830	0.000000	0.000398	0.000000	-0.000028	-0.000001	0.000000	0.000000
68.435038	23.224327	11.888237	-0.020406	0.267376	2.844167	0.000000	0.007825	0.000000	-0.000028	-0.000001	0.000000	0.000000
68.768372	23.242717	11.720001	-0.034764	0.237332	2.846776	0.000000	0.007825	0.000000	-0.000028	-0.000001	0.000000	0.000000
69.101705	23.270679	11.571794	-0.049123	0.207289	2.849384	0.000000	0.007825	0.000000	-0.000029	-0.000001	0.000000	0.000000
69.436288	23.308373	11.443173	-0.063536	0.177133	2.852003	0.000000	0.007825	0.000000	-0.000029	-0.000001	0.000000	0.000000
69.733611	23.349962	11.345809	-0.137367	0.179987	2.854330	0.000000	0.015285	0.000000	-0.000029	-0.000001	0.000000	0.000000
70.282671	23.099772	11.375450	0.590339	-0.234291	2.839532	0.000000	-0.069109	0.000000	-0.000029	0.000000	0.000000	0.000000
