#ParticleID	Turn	x[m]	xp	y[m]	yp	z[m]	dE[GeV]# s	beta_x	beta_y	alpha_x	alpha_y	D_x	D_y	D_px	D_py	orbit_x	orbit_px	orbit_y	orbit_py
0.300000	11.810085	25.034131	-0.010612	-0.027119	2.618089	0.000000	0.000020	0.000000	-0.000000	0.000002	0.000000	0.000000
0.601250	11.824163	25.054098	-0.036122	-0.039161	2.618095	0.000000	0.000020	0.000000	0.000000	0.000002	0.000000	0.000000
0.898573	11.853129	25.080919	-0.032233	-0.112552	2.618100	0.000000	-0.006400	0.000000	0.000000	0.000002	0.000000	0.000000
1.339533	12.033641	24.901957	-0.378679	0.516854	2.631571	0.000000	0.067557	0.000000	0.000001	0.000002	0.000000	0.000000
1.780493	12.526134	24.176199	-0.742425	1.122743	2.677792	0.000000	0.142283	0.000000	0.000002	0.000002	0.000000	0.000000
2.221453	13.353112	22.936666	-1.140091	1.677548	2.757289	0.000000	0.218630	0.000000	0.000003	0.000002	0.000000	0.000000
2.662413	14.552355	21.239755	-1.589844	2.156026	2.870970	0.000000	0.297467	0.000000	0.000003	0.000002	0.000000	0.000000
3.108373	16.199387	19.137791	-2.116521	2.537540	3.021989	0.000000	0.380182	0.000000	0.000004	0.000002	0.000000	0.000000
3.657433	18.311445	16.776951	-1.707387	1.787625	3.205459	0.000000	0.287144	0.000000	0.000005	0.000002	0.000000	0.000000
4.206493	19.904938	15.165276	-1.177652	1.165038	3.336370	0.000000	0.189013	0.000000	0.000006	0.000002	0.000000	0.000000
4.755553	20.867309	14.187968	-0.564733	0.625434	3.412400	0.000000	0.087529	0.000000	0.000007	0.000001	0.000000	0.000000
5.304613	21.130582	13.775418	0.088075	0.130378	3.432201	0.000000	-0.015507	0.000000	0.000007	0.000001	0.000000	0.000000
5.603185	21.115179	13.682722	0.018723	0.144094	3.430248	0.000000	-0.006540	0.000000	0.000008	0.000001	0.000000	0.000000
5.936519	21.107961	13.594949	0.002931	0.119226	3.428067	0.000000	-0.006540	0.000000	0.000008	0.000001	0.000000	0.000000
6.269852	21.111271	13.523754	-0.012861	0.094359	3.425887	0.000000	-0.006540	0.000000	0.000008	0.000001	0.000000	0.000000
6.604435	21.125180	13.468963	-0.028712	0.069398	3.423698	0.000000	-0.006540	0.000000	0.000009	0.000001	0.000000	0.000000
6.901758	21.146442	13.434291	-0.098046	0.082316	3.421753	0.000000	0.002400	0.000000	0.000009	0.000001	0.000000	0.000000
7.450818	20.893725	13.604777	0.555594	-0.394655	3.394869	0.000000	-0.100183	0.000000	0.000010	0.000001	0.000000	0.000000
7.999878	19.940634	14.311305	1.169989	-0.899736	3.312066	0.000000	-0.200989	0.000000	0.000010	0.000000	0.000000	0.000000
8.548938	18.354492	15.604199	1.701742	-1.468904	3.174813	0.000000	-0.298230	0.000000	0.000010	0.000000	0.000000	0.000000
9.097998	16.247336	17.575550	2.113292	-2.142698	2.985545	0.000000	-0.390181	0.000000	0.000010	-0.000000	0.000000	0.000000
9.543958	14.603394	19.332108	1.586112	-1.779477	2.829846	0.000000	-0.308473	0.000000	0.000010	0.000000	0.000000	0.000000
9.984918	13.407727	20.711388	1.135684	-1.336525	2.711069	0.000000	-0.230762	0.000000	0.000010	0.000000	0.000000	0.000000
10.425878	12.585007	21.671612	0.737141	-0.832763	2.625947	0.000000	-0.155679	0.000000	0.000010	0.000001	0.000000	0.000000
10.866838	12.097646	22.169088	0.372277	-0.291110	2.573512	0.000000	-0.082369	0.000000	0.000011	0.000001	0.000000	0.000000
11.309048	11.923246	22.180658	0.053552	0.209340	2.553146	0.000000	-0.016258	0.000000	0.000011	0.000001	0.000000	0.000000
11.606371	11.898837	22.060335	0.028544	0.195348	2.548311	0.000000	-0.016258	0.000000	0.000012	0.000001	0.000000	0.000000
12.086371	11.890813	21.883644	-0.011829	0.172759	2.540507	0.000000	-0.016258	0.000000	0.000012	0.000001	0.000000	0.000000
12.566371	11.921548	21.728639	-0.052202	0.150170	2.532703	0.000000	-0.016258	0.000000	0.000013	0.000001	0.000000	0.000000
13.046371	11.991040	21.595318	-0.092575	0.127581	2.524898	0.000000	-0.016258	0.000000	0.000013	0.000001	0.000000	0.000000
13.526371	12.099291	21.483683	-0.132948	0.104992	2.517094	0.000000	-0.016258	0.000000	0.000014	0.000001	0.000000	0.000000
14.007621	12.246733	21.393527	-0.173426	0.082345	2.509269	0.000000	-0.016258	0.000000	0.000014	0.000001	0.000000	0.000000
14.304943	12.357295	21.348721	-0.168134	0.016007	2.504435	0.000000	-0.022399	0.000000	0.000015	0.000001	0.000000	0.000000
14.745903	12.664087	21.100950	-0.530241	0.543746	2.510190	0.000000	0.048529	0.000000	0.000015	0.000002	0.000000	0.000000
15.186863	13.299663	20.396928	-0.916573	1.046745	2.547313	0.000000	0.120009	0.000000	0.000016	0.000002	0.000000	0.000000
15.627823	14.293061	19.268688	-1.344781	1.502117	2.616227	0.000000	0.192855	0.000000	0.000017	0.000002	0.000000	0.000000
16.068783	15.689667	17.767564	-1.834427	1.889145	2.717717	0.000000	0.267899	0.000000	0.000018	0.000003	0.000000	0.000000
16.514743	17.576946	15.940355	-2.412642	2.190962	2.854633	0.000000	0.346456	0.000000	0.000019	0.000003	0.000000	0.000000
17.063803	20.000938	13.900135	-1.976024	1.546812	3.021124	0.000000	0.259115	0.000000	0.000021	0.000003	0.000000	0.000000
17.612863	21.865522	12.502981	-1.399829	1.012838	3.138326	0.000000	0.167179	0.000000	0.000022	0.000002	0.000000	0.000000
18.161923	23.038994	11.649375	-0.724757	0.551006	3.204160	0.000000	0.072277	0.000000	0.000023	0.000001	0.000000	0.000000
18.710983	23.438466	11.278517	0.001508	0.128422	3.217458	0.000000	-0.023907	0.000000	0.000024	0.000000	0.000000	0.000000
19.009556	23.477945	11.192338	-0.072504	0.130752	3.212829	0.000000	-0.015502	0.000000	0.000024	0.000000	0.000000	0.000000
19.342889	23.531038	11.115268	-0.086776	0.100460	3.207662	0.000000	-0.015502	0.000000	0.000024	0.000000	0.000000	0.000000
19.676223	23.593646	11.058391	-0.101048	0.070169	3.202495	0.000000	-0.015502	0.000000	0.000024	0.000000	0.000000	0.000000
20.010806	23.666351	11.021473	-0.232631	0.094371	3.197328	0.000000	0.000340	0.000000	0.000024	0.000001	0.000000	0.000000
20.308129	23.808621	10.973448	-0.308068	0.095820	3.197429	0.000000	0.008692	0.000000	0.000024	0.000001	0.000000	0.000000
20.857189	23.736273	11.090273	0.439055	-0.309848	3.175979	0.000000	-0.086710	0.000000	0.000025	-0.000000	0.000000	0.000000
21.406249	22.855737	11.662003	1.155166	-0.737586	3.102493	0.000000	-0.180575	0.000000	0.000024	-0.000001	0.000000	0.000000
21.955309	21.229209	12.729361	1.789682	-1.217861	2.978275	0.000000	-0.271237	0.000000	0.000024	-0.000002	0.000000	0.000000
22.504369	18.971579	14.368372	2.297783	-1.784881	2.805528	0.000000	-0.357087	0.000000	0.000022	-0.000002	0.000000	0.000000
22.950329	17.192312	15.839952	1.706044	-1.501000	2.663578	0.000000	-0.279870	0.000000	0.000022	-0.000002	0.000000	0.000000
23.391289	15.917046	17.013259	1.196946	-1.149678	2.556491	0.000000	-0.206294	0.000000	0.000021	-0.000001	0.000000	0.000000
23.832249	15.065045	17.852391	0.742534	-0.746046	2.481299	0.000000	-0.135068	0.000000	0.000020	-0.000001	0.000000	0.000000
24.273209	14.597382	18.319167	0.322045	-0.308470	2.437146	0.000000	-0.065381	0.000000	0.000020	-0.000000	0.000000	0.000000
24.715418	14.492813	18.392103	-0.048283	0.097978	2.423527	0.000000	-0.002380	0.000000	0.000020	0.000000	0.000000	0.000000
25.012741	14.527638	18.338694	-0.068846	0.081657	2.422819	0.000000	-0.002380	0.000000	0.000020	0.000000	0.000000	0.000000
25.346075	14.581220	18.290355	-0.091900	0.063359	2.422026	0.000000	-0.002380	0.000000	0.000020	0.000000	0.000000	0.000000
25.679408	14.650171	18.254215	-0.114953	0.045062	2.421232	0.000000	-0.002380	0.000000	0.000020	0.000000	0.000000	0.000000
26.013991	14.734537	18.230576	-0.018557	-0.121200	2.420411	0.000000	-0.022016	0.000000	0.000020	0.000000	0.000000	0.000000
26.311314	14.751573	18.307567	-0.002574	-0.182636	2.413866	0.000000	-0.027934	0.000000	0.000020	-0.000000	0.000000	0.000000
26.752274	14.935582	18.270102	-0.416299	0.267275	2.416660	0.000000	0.040620	0.000000	0.000020	0.000001	0.000000	0.000000
27.193234	15.491439	17.839718	-0.849044	0.705026	2.449757	0.000000	0.109637	0.000000	0.000021	0.000001	0.000000	0.000000
27.634194	16.444541	17.035998	-1.320579	1.110698	2.513533	0.000000	0.179903	0.000000	0.000021	0.000002	0.000000	0.000000
28.075154	17.838431	15.895510	-1.852447	1.465834	2.608716	0.000000	0.252217	0.000000	0.000022	0.000002	0.000000	0.000000
28.521114	19.761008	14.452965	-2.473919	1.755188	2.737992	0.000000	0.327848	0.000000	0.000023	0.000003	0.000000	0.000000
29.070174	22.204614	12.845729	-1.950259	1.189338	2.895331	0.000000	0.244435	0.000000	0.000025	0.000002	0.000000	0.000000
29.619234	23.993667	11.809979	-1.288843	0.708203	3.005612	0.000000	0.156687	0.000000	0.000025	0.000001	0.000000	0.000000
30.168294	25.001798	11.271939	-0.536389	0.277511	3.066880	0.000000	0.066159	0.000000	0.000026	0.000000	0.000000	0.000000
30.717354	25.157796	11.193285	0.253952	-0.133414	3.078047	0.000000	-0.025542	0.000000	0.000026	-0.000001	0.000000	0.000000
31.015927	25.049063	11.263543	0.175945	-0.131138	3.072821	0.000000	-0.017502	0.000000	0.000026	-0.000000	0.000000	0.000000
31.349260	24.936339	11.361003	0.162226	-0.161241	3.066988	0.000000	-0.017502	0.000000	0.000025	-0.000000	0.000000	0.000000
31.682593	24.832761	11.478531	0.148507	-0.191344	3.061154	0.000000	-0.017502	0.000000	0.000025	-0.000000	0.000000	0.000000
32.017177	24.737993	11.616682	0.134736	-0.221560	3.055298	0.000000	-0.017502	0.000000	0.000025	-0.000000	0.000000	0.000000
32.314499	24.661511	11.756415	0.058077	-0.217700	3.050095	0.000000	-0.009534	0.000000	0.000025	-0.000000	0.000000	0.000000
32.863559	24.175190	12.234667	0.822414	-0.658480	3.019974	0.000000	-0.100022	0.000000	0.000025	-0.000001	0.000000	0.000000
33.412619	22.876621	13.219709	1.528660	-1.146161	2.940585	0.000000	-0.188737	0.000000	0.000024	-0.000002	0.000000	0.000000
33.961679	20.857530	14.781703	2.126929	-1.715482	2.813336	0.000000	-0.274103	0.000000	0.000022	-0.000003	0.000000	0.000000
34.510739	18.260535	17.031907	2.574962	-2.406992	2.640483	0.000000	-0.354608	0.000000	0.000021	-0.000003	0.000000	0.000000
34.956699	16.241238	19.044648	1.969238	-2.087441	2.498687	0.000000	-0.281670	0.000000	0.000019	-0.000003	0.000000	0.000000
35.397659	14.735454	20.709478	1.458500	-1.673658	2.389866	0.000000	-0.212367	0.000000	0.000018	-0.000002	0.000000	0.000000
35.838619	13.649126	21.974283	1.014396	-1.183725	2.311043	0.000000	-0.145484	0.000000	0.000017	-0.000002	0.000000	0.000000
36.279579	12.932623	22.781515	0.616638	-0.639933	2.261320	0.000000	-0.080257	0.000000	0.000016	-0.000002	0.000000	0.000000
36.721789	12.552515	23.094755	0.277724	-0.123705	2.240103	0.000000	-0.021437	0.000000	0.000016	-0.000001	0.000000	0.000000
37.019112	12.394953	23.172202	0.252211	-0.136776	2.233730	0.000000	-0.021437	0.000000	0.000015	-0.000001	0.000000	0.000000
37.352445	12.236347	23.268271	0.223607	-0.151430	2.226584	0.000000	-0.021437	0.000000	0.000015	-0.000001	0.000000	0.000000
37.685779	12.096810	23.374109	0.195004	-0.166084	2.219439	0.000000	-0.021437	0.000000	0.000015	-0.000001	0.000000	0.000000
38.020362	11.975926	23.490168	0.166294	-0.180793	2.212267	0.000000	-0.021437	0.000000	0.000014	-0.000001	0.000000	0.000000
38.317684	11.884626	23.601562	0.169921	-0.251735	2.205893	0.000000	-0.026846	0.000000	0.000014	-0.000001	0.000000	0.000000
38.758644	11.886271	23.562150	-0.173667	0.340774	2.207985	0.000000	0.036338	0.000000	0.000014	-0.000001	0.000000	0.000000
39.199604	12.193274	23.005059	-0.525189	0.917778	2.238002	0.000000	0.099935	0.000000	0.000013	-0.000000	0.000000	0.000000
39.640564	12.819660	21.955637	-0.900706	1.453023	2.296287	0.000000	0.164671	0.000000	0.000013	-0.000000	0.000000	0.000000
40.081524	13.794048	20.461631	-1.317373	1.922158	2.383504	0.000000	0.231282	0.000000	0.000013	0.000000	0.000000	0.000000
40.527484	15.178531	18.568445	-1.798055	2.305120	2.502118	0.000000	0.300933	0.000000	0.000013	0.000001	0.000000	0.000000
41.076544	16.945236	16.440945	-1.400587	1.592555	2.646816	0.000000	0.225368	0.000000	0.000013	0.000000	0.000000	0.000000
41.625604	18.218232	15.029419	-0.904189	0.993424	2.748864	0.000000	0.145805	0.000000	0.000013	-0.000000	0.000000	0.000000
42.174664	18.907602	14.233327	-0.343923	0.465052	2.806453	0.000000	0.063656	0.000000	0.000013	-0.000001	0.000000	0.000000
42.723724	18.964650	13.995966	0.240635	-0.030195	2.818560	0.000000	-0.019622	0.000000	0.000013	-0.000001	0.000000	0.000000
43.022297	18.855415	13.998532	0.174771	-0.014964	2.814900	0.000000	-0.012259	0.000000	0.000012	-0.000001	0.000000	0.000000
43.502297	18.700227	14.029360	0.148536	-0.049261	2.809016	0.000000	-0.012259	0.000000	0.000012	-0.000001	0.000000	0.000000
43.982297	18.570225	14.093112	0.122302	-0.083558	2.803132	0.000000	-0.012259	0.000000	0.000011	-0.000001	0.000000	0.000000
44.462297	18.465407	14.189790	0.096068	-0.117855	2.797249	0.000000	-0.012259	0.000000	0.000011	-0.000001	0.000000	0.000000
44.942297	18.385775	14.319394	0.069833	-0.152152	2.791365	0.000000	-0.012259	0.000000	0.000010	-0.000001	0.000000	0.000000
45.423547	18.331446	14.482209	-0.047294	-0.114784	2.785484	0.000000	0.001542	0.000000	0.000009	-0.000001	0.000000	0.000000
45.720870	18.364402	14.556649	-0.111529	-0.097554	2.785942	0.000000	0.008821	0.000000	0.000009	-0.000001	0.000000	0.000000
46.269930	18.177656	14.945283	0.449634	-0.614440	2.768213	0.000000	-0.073309	0.000000	0.000008	-0.000001	0.000000	0.000000
46.818990	17.388559	15.922078	0.979036	-1.175092	2.705680	0.000000	-0.154139	0.000000	0.000008	-0.000002	0.000000	0.000000
47.368050	16.052849	17.556609	1.439284	-1.819443	2.599453	0.000000	-0.232235	0.000000	0.000007	-0.000002	0.000000	0.000000
47.917110	14.264874	19.965300	1.797868	-2.593388	2.451416	0.000000	-0.306212	0.000000	0.000006	-0.000002	0.000000	0.000000
48.363070	12.873525	22.106793	1.333081	-2.188409	2.330151	0.000000	-0.237911	0.000000	0.000005	-0.000002	0.000000	0.000000
48.804030	11.878064	23.821396	0.932970	-1.685134	2.239703	0.000000	-0.172717	0.000000	0.000004	-0.000002	0.000000	0.000000
49.244990	11.215410	25.056516	0.575483	-1.105187	2.177542	0.000000	-0.109490	0.000000	0.000003	-0.000002	0.000000	0.000000
49.685950	10.855290	25.755957	0.244288	-0.474955	2.142961	0.000000	-0.047509	0.000000	0.000002	-0.000002	0.000000	0.000000
50.128160	10.781374	25.887611	-0.049424	0.113356	2.135575	0.000000	0.008693	0.000000	0.000002	-0.000002	0.000000	0.000000
50.425482	10.818983	25.823663	-0.077069	0.101723	2.138160	0.000000	0.008693	0.000000	0.000001	-0.000002	0.000000	0.000000
50.758816	10.880693	25.760195	-0.108062	0.088681	2.141058	0.000000	0.008693	0.000000	0.000001	-0.000002	0.000000	0.000000
51.092149	10.963066	25.705422	-0.139055	0.075640	2.143957	0.000000	0.008693	0.000000	0.000000	-0.000002	0.000000	0.000000
51.426732	11.066301	25.659707	-0.080387	-0.145615	2.146844	0.000000	-0.008724	0.000000	-0.000000	-0.000002	0.000000	0.000000
51.724055	11.122142	25.749814	-0.080153	-0.220595	2.144250	0.000000	-0.013982	0.000000	-0.000001	-0.000002	0.000000	0.000000
52.165015	11.338064	25.657872	-0.411369	0.428305	2.151674	0.000000	0.047681	0.000000	-0.000002	-0.000002	0.000000	0.000000
52.605975	11.853244	25.000093	-0.761379	1.057717	2.186382	0.000000	0.109887	0.000000	-0.000002	-0.000002	0.000000	0.000000
53.046935	12.691219	23.806405	-1.146174	1.639004	2.248771	0.000000	0.173345	0.000000	-0.000003	-0.000002	0.000000	0.000000
53.487895	13.890274	22.131120	-1.583334	2.145717	2.339550	0.000000	0.238778	0.000000	-0.000004	-0.000002	0.000000	0.000000
53.933855	15.525746	20.025414	-2.097059	2.556140	2.461258	0.000000	0.307328	0.000000	-0.000005	-0.000002	0.000000	0.000000
54.482915	17.631395	17.655924	-1.715248	1.784874	2.609821	0.000000	0.233024	0.000000	-0.000006	-0.000002	0.000000	0.000000
55.031975	19.248355	16.059013	-1.212280	1.140740	2.716389	0.000000	0.154587	0.000000	-0.000007	-0.000002	0.000000	0.000000
55.581035	20.262411	15.120937	-0.623683	0.577858	2.779074	0.000000	0.073407	0.000000	-0.000007	-0.000001	0.000000	0.000000
56.130095	20.601935	14.774879	0.008968	0.056136	2.796762	0.000000	-0.009074	0.000000	-0.000008	-0.000001	0.000000	0.000000
56.428668	20.633062	14.724391	-0.059386	0.074354	2.796235	0.000000	-0.001766	0.000000	-0.000008	-0.000001	0.000000	0.000000
56.762001	20.678057	14.682410	-0.075598	0.051590	2.795646	0.000000	-0.001766	0.000000	-0.000009	-0.000001	0.000000	0.000000
57.095334	20.733860	14.655604	-0.091811	0.028827	2.795058	0.000000	-0.001766	0.000000	-0.000009	-0.000001	0.000000	0.000000
57.429918	20.800741	14.643959	-0.108084	0.005978	2.794468	0.000000	-0.001766	0.000000	-0.000010	-0.000001	0.000000	0.000000
57.727240	20.869312	14.646441	-0.177077	0.023946	2.793943	0.000000	0.005535	0.000000	-0.000010	-0.000001	0.000000	0.000000
58.276300	20.707752	14.901359	0.469584	-0.490967	2.774343	0.000000	-0.076825	0.000000	-0.000010	-0.000001	0.000000	0.000000
58.825360	19.850172	15.737484	1.083076	-1.040851	2.709831	0.000000	-0.157821	0.000000	-0.000011	-0.000000	0.000000	0.000000
59.374420	18.357148	17.214369	1.620064	-1.664872	2.601551	0.000000	-0.236018	0.000000	-0.000011	-0.000000	0.000000	0.000000
59.923480	16.334139	19.437212	2.042620	-2.407477	2.451424	0.000000	-0.310029	0.000000	-0.000011	0.000000	0.000000	0.000000
60.369440	14.750777	21.412868	1.520411	-2.003942	2.328453	0.000000	-0.241750	0.000000	-0.000011	-0.000000	0.000000	0.000000
60.810400	13.612007	22.968562	1.071866	-1.510605	2.236298	0.000000	-0.176622	0.000000	-0.000011	-0.000000	0.000000	0.000000
61.251360	12.845809	24.057087	0.672292	-0.948536	2.172392	0.000000	-0.113505	0.000000	-0.000011	-0.000001	0.000000	0.000000
61.692320	12.417180	24.628915	0.303433	-0.343310	2.136007	0.000000	-0.051681	0.000000	-0.000011	-0.000001	0.000000	0.000000
62.134530	12.306588	24.657487	-0.021482	0.217008	2.126734	0.000000	0.004339	0.000000	-0.000012	-0.000001	0.000000	0.000000
62.431853	12.326548	24.532198	-0.045652	0.204382	2.128024	0.000000	0.004339	0.000000	-0.000012	-0.000001	0.000000	0.000000
62.765186	12.366016	24.400662	-0.072751	0.190227	2.129471	0.000000	0.004339	0.000000	-0.000013	-0.000001	0.000000	0.000000
63.098520	12.423549	24.278562	-0.099849	0.176072	2.130917	0.000000	0.004339	0.000000	-0.000013	-0.000001	0.000000	0.000000
63.433103	12.499466	24.165494	-0.127049	0.161864	2.132370	0.000000	0.004339	0.000000	-0.000013	-0.000001	0.000000	0.000000
63.730426	12.582201	24.072997	-0.120360	0.090195	2.133660	0.000000	-0.000894	0.000000	-0.000014	-0.000001	0.000000	0.000000
64.171386	12.848604	23.728343	-0.486076	0.688430	2.146805	0.000000	0.060570	0.000000	-0.000014	-0.000002	0.000000	0.000000
64.612346	13.446075	22.867943	-0.873998	1.255342	2.187180	0.000000	0.122724	0.000000	-0.000015	-0.000002	0.000000	0.000000
65.053306	14.401911	21.530945	-1.301851	1.765137	2.255244	0.000000	0.186275	0.000000	-0.000016	-0.000002	0.000000	0.000000
65.494266	15.759781	19.778182	-1.789182	2.194619	2.351773	0.000000	0.251949	0.000000	-0.000017	-0.000003	0.000000	0.000000
65.940226	17.604883	17.664604	-2.362947	2.525000	2.479438	0.000000	0.320893	0.000000	-0.000019	-0.000003	0.000000	0.000000
66.489286	19.970227	15.300207	-1.919543	1.806684	2.635266	0.000000	0.245882	0.000000	-0.000020	-0.000003	0.000000	0.000000
67.038346	21.770872	13.649735	-1.340552	1.217055	2.748648	0.000000	0.166510	0.000000	-0.000021	-0.000002	0.000000	0.000000
67.587406	22.879631	12.595630	-0.666871	0.714114	2.817574	0.000000	0.084185	0.000000	-0.000022	-0.000001	0.000000	0.000000
68.136466	23.218185	12.062809	0.053914	0.262038	2.840820	0.000000	0.000366	0.000000	-0.000023	-0.000000	0.000000	0.000000
68.435038	23.226063	11.895537	-0.019623	0.266677	2.843146	0.000000	0.007790	0.000000	-0.000023	-0.000001	0.000000	0.000000
68.768372	23.243931	11.727757	-0.033980	0.236663	2.845743	0.000000	0.007790	0.000000	-0.000023	-0.000001	0.000000	0.000000
69.101705	23.271370	11.579987	-0.048337	0.206648	2.848339	0.000000	0.007790	0.000000	-0.000023	-0.000001	0.000000	0.000000
69.436288	23.308537	11.451785	-0.062748	0.176521	2.850946	0.000000	0.007790	0.000000	-0.000023	-0.000001	0.000000	0.000000
69.733611	23.349658	11.354777	-0.136575	0.179423	2.853262	0.000000	0.015246	0.000000	-0.000023	-0.000001	0.000000	0.000000
70.282671	23.098610	11.385178	0.591099	-0.235118	2.838452	0.000000	-0.069113	0.000000	-0.000024	0.000000	0.000000	0.000000
