#ParticleID	Turn	x[m]	xp	y[m]	yp	z[m]	dE[GeV]# s	beta_x	beta_y	alpha_x	alpha_y	D_x	D_y	D_px	D_py	orbit_x	orbit_px	orbit_y	orbit_py
0.300000	11.813749	25.019233	-0.010996	-0.027284	2.618049	0.000000	0.000037	0.000000	-0.000000	0.000001	0.000000	0.000000
0.601250	11.828057	25.039302	-0.036499	-0.039334	2.618060	0.000000	0.000037	0.000000	-0.000000	0.000001	0.000000	0.000000
0.898573	11.857245	25.066227	-0.032592	-0.112695	2.618071	0.000000	-0.006384	0.000000	0.000000	0.000001	0.000000	0.000000
1.339533	12.038116	24.887563	-0.379140	0.516325	2.631548	0.000000	0.067573	0.000000	0.000001	0.000001	0.000000	0.000000
1.780493	12.531070	24.162432	-0.743011	1.121853	2.677776	0.000000	0.142298	0.000000	0.000001	0.000001	0.000000	0.000000
2.221453	13.358628	22.923829	-1.140828	1.676338	2.757281	0.000000	0.218645	0.000000	0.000002	0.000001	0.000000	0.000000
2.662413	14.558599	21.228107	-1.590765	2.154550	2.870968	0.000000	0.297482	0.000000	0.000002	0.000001	0.000000	0.000000
3.108373	16.206552	19.127554	-2.117670	2.535865	3.021993	0.000000	0.380196	0.000000	0.000003	0.000001	0.000000	0.000000
3.657433	18.319776	16.768322	-1.708349	1.786355	3.205471	0.000000	0.287158	0.000000	0.000004	0.000001	0.000000	0.000000
4.206493	19.914190	15.157860	-1.178358	1.164083	3.336390	0.000000	0.189027	0.000000	0.000004	0.000001	0.000000	0.000000
4.755553	20.877172	14.181460	-0.565134	0.624726	3.412428	0.000000	0.087542	0.000000	0.000005	0.000001	0.000000	0.000000
5.304613	21.140703	13.769574	0.088008	0.129867	3.432236	0.000000	-0.015495	0.000000	0.000006	0.000001	0.000000	0.000000
5.603185	21.125354	13.677194	0.018636	0.143563	3.430287	0.000000	-0.006528	0.000000	0.000006	0.000001	0.000000	0.000000
5.936519	21.118191	13.589776	0.002852	0.118689	3.428110	0.000000	-0.006528	0.000000	0.000006	0.000001	0.000000	0.000000
6.269852	21.121551	13.518941	-0.012933	0.093816	3.425934	0.000000	-0.006528	0.000000	0.000006	0.000001	0.000000	0.000000
6.604435	21.135506	13.464517	-0.028776	0.068848	3.423750	0.000000	-0.006528	0.000000	0.000007	0.000001	0.000000	0.000000
6.901758	21.156804	13.430173	-0.098131	0.081751	3.421809	0.000000	0.002412	0.000000	0.000007	0.000001	0.000000	0.000000
7.450818	20.903990	13.601219	0.555855	-0.395115	3.394931	0.000000	-0.100173	0.000000	0.000007	0.000001	0.000000	0.000000
7.999878	19.950430	14.308210	1.170578	-0.900124	3.312133	0.000000	-0.200981	0.000000	0.000008	0.000000	0.000000	0.000000
8.548938	18.363478	15.601503	1.702618	-1.469247	3.174884	0.000000	-0.298224	0.000000	0.000008	0.000000	0.000000	0.000000
9.097998	16.255230	17.573216	2.114393	-2.143021	2.985619	0.000000	-0.390177	0.000000	0.000008	-0.000000	0.000000	0.000000
9.543958	14.610416	19.330110	1.586977	-1.779906	2.829923	0.000000	-0.308467	0.000000	0.000008	0.000000	0.000000	0.000000
9.984918	13.414075	20.709809	1.136353	-1.337040	2.711148	0.000000	-0.230754	0.000000	0.000008	0.000000	0.000000	0.000000
10.425878	12.590839	21.670516	0.737647	-0.833340	2.626031	0.000000	-0.155669	0.000000	0.000008	0.000000	0.000000	0.000000
10.866838	12.103096	22.168518	0.372641	-0.291723	2.573601	0.000000	-0.082357	0.000000	0.000008	0.000001	0.000000	0.000000
11.309048	11.928430	22.180637	0.053805	0.208717	2.553240	0.000000	-0.016244	0.000000	0.000009	0.000001	0.000000	0.000000
11.606371	11.903867	22.060684	0.028808	0.194728	2.548410	0.000000	-0.016244	0.000000	0.000009	0.000001	0.000000	0.000000
12.086371	11.895583	21.884585	-0.011549	0.172145	2.540613	0.000000	-0.016244	0.000000	0.000009	0.000001	0.000000	0.000000
12.566371	11.926041	21.730166	-0.051905	0.149562	2.532816	0.000000	-0.016244	0.000000	0.000010	0.000001	0.000000	0.000000
13.046371	11.995241	21.597426	-0.092262	0.126979	2.525018	0.000000	-0.016244	0.000000	0.000010	0.000001	0.000000	0.000000
13.526371	12.103184	21.486367	-0.132618	0.104395	2.517221	0.000000	-0.016244	0.000000	0.000011	0.000001	0.000000	0.000000
14.007621	12.250301	21.396783	-0.173080	0.081753	2.509403	0.000000	-0.016244	0.000000	0.000011	0.000001	0.000000	0.000000
14.304943	12.360655	21.352328	-0.167769	0.015408	2.504573	0.000000	-0.022385	0.000000	0.000011	0.000001	0.000000	0.000000
14.745903	12.667154	21.105037	-0.529940	0.543257	2.510335	0.000000	0.048546	0.000000	0.000012	0.000001	0.000000	0.000000
15.186863	13.302488	20.401389	-0.916323	1.046389	2.547467	0.000000	0.120030	0.000000	0.000012	0.000001	0.000000	0.000000
15.627823	14.295684	19.273399	-1.344570	1.501910	2.616391	0.000000	0.192881	0.000000	0.000013	0.000002	0.000000	0.000000
16.068783	15.692118	17.772389	-1.834247	1.889095	2.717893	0.000000	0.267928	0.000000	0.000014	0.000002	0.000000	0.000000
16.514743	17.579246	15.945152	-2.412483	2.191073	2.854824	0.000000	0.346490	0.000000	0.000015	0.000003	0.000000	0.000000
17.063803	20.002995	13.904870	-1.975745	1.546815	3.021332	0.000000	0.259143	0.000000	0.000016	0.000002	0.000000	0.000000
17.612863	21.867216	12.507771	-1.399451	1.012732	3.138548	0.000000	0.167200	0.000000	0.000017	0.000001	0.000000	0.000000
18.161923	23.040231	11.654344	-0.724306	0.550785	3.204391	0.000000	0.072291	0.000000	0.000018	0.000001	0.000000	0.000000
18.710983	23.439182	11.283800	0.002000	0.128068	3.217695	0.000000	-0.023900	0.000000	0.000018	0.000000	0.000000	0.000000
19.009556	23.478370	11.197818	-0.072016	0.130429	3.213069	0.000000	-0.015495	0.000000	0.000018	0.000000	0.000000	0.000000
19.342889	23.531137	11.120957	-0.086287	0.100155	3.207904	0.000000	-0.015495	0.000000	0.000018	0.000000	0.000000	0.000000
19.676223	23.593419	11.064278	-0.100558	0.069881	3.202739	0.000000	-0.015495	0.000000	0.000018	0.000000	0.000000	0.000000
20.010806	23.665795	11.027547	-0.232136	0.094131	3.197575	0.000000	0.000348	0.000000	0.000019	0.000000	0.000000	0.000000
20.308129	23.807771	10.979660	-0.307572	0.095613	3.197678	0.000000	0.008702	0.000000	0.000019	0.000001	0.000000	0.000000
20.857189	23.734896	11.096808	0.439513	-0.310234	3.176231	0.000000	-0.086709	0.000000	0.000019	-0.000000	0.000000	0.000000
21.406249	22.853894	11.669072	1.155553	-0.738178	3.102744	0.000000	-0.180582	0.000000	0.000019	-0.000001	0.000000	0.000000
21.955309	21.226994	12.737212	1.789970	-1.218702	2.978519	0.000000	-0.271251	0.000000	0.000018	-0.000001	0.000000	0.000000
22.504369	18.969112	14.377309	2.297953	-1.786031	2.805762	0.000000	-0.357110	0.000000	0.000017	-0.000002	0.000000	0.000000
22.950329	17.189681	15.849824	1.706245	-1.501938	2.663802	0.000000	-0.279886	0.000000	0.000016	-0.000001	0.000000	0.000000
23.391289	15.914222	17.023850	1.197187	-1.150363	2.556709	0.000000	-0.206305	0.000000	0.000016	-0.000001	0.000000	0.000000
23.832249	15.061987	17.863463	0.742825	-0.746447	2.481514	0.000000	-0.135074	0.000000	0.000016	-0.000001	0.000000	0.000000
24.273209	14.594041	18.330459	0.322400	-0.308568	2.437360	0.000000	-0.065381	0.000000	0.000015	-0.000000	0.000000	0.000000
24.715418	14.489123	18.403346	-0.047855	0.098157	2.423742	0.000000	-0.002375	0.000000	0.000015	0.000000	0.000000	0.000000
25.012741	14.523695	18.349827	-0.068422	0.081846	2.423035	0.000000	-0.002375	0.000000	0.000015	0.000000	0.000000	0.000000
25.346075	14.576996	18.301359	-0.091481	0.063559	2.422244	0.000000	-0.002375	0.000000	0.000015	0.000000	0.000000	0.000000
25.679408	14.645669	18.265082	-0.114539	0.045272	2.421452	0.000000	-0.002375	0.000000	0.000015	0.000000	0.000000	0.000000
26.013991	14.729760	18.241299	-0.018187	-0.121067	2.420633	0.000000	-0.022013	0.000000	0.000016	0.000000	0.000000	0.000000
26.311314	14.746579	18.318208	-0.002221	-0.182520	2.414088	0.000000	-0.027932	0.000000	0.000016	-0.000000	0.000000	0.000000
26.752274	14.930221	18.280514	-0.415818	0.267677	2.416884	0.000000	0.040628	0.000000	0.000016	0.000000	0.000000	0.000000
27.193234	15.485589	17.849656	-0.848413	0.705695	2.449986	0.000000	0.109651	0.000000	0.000016	0.000001	0.000000	0.000000
27.634194	16.438058	17.045238	-1.319769	1.111605	2.513770	0.000000	0.179922	0.000000	0.000016	0.000001	0.000000	0.000000
28.075154	17.831142	15.903860	-1.851422	1.466937	2.608963	0.000000	0.252243	0.000000	0.000017	0.000002	0.000000	0.000000
28.521114	19.752690	14.460261	-2.472629	1.756437	2.738252	0.000000	0.327880	0.000000	0.000018	0.000002	0.000000	0.000000
29.070174	22.194991	12.851817	-1.949188	1.190305	2.895607	0.000000	0.244459	0.000000	0.000019	0.000001	0.000000	0.000000
29.619234	23.983023	11.815128	-1.288066	0.708955	3.005899	0.000000	0.156701	0.000000	0.000019	0.000001	0.000000	0.000000
30.168294	24.990488	11.276354	-0.535962	0.278103	3.067172	0.000000	0.066164	0.000000	0.000020	0.000000	0.000000	0.000000
30.717354	25.146223	11.197119	0.254000	-0.132941	3.078340	0.000000	-0.025546	0.000000	0.000020	-0.000000	0.000000	0.000000
31.015927	25.037446	11.267083	0.176014	-0.130641	3.073113	0.000000	-0.017504	0.000000	0.000020	-0.000000	0.000000	0.000000
31.349260	24.924679	11.364207	0.162288	-0.160731	3.067279	0.000000	-0.017504	0.000000	0.000019	-0.000000	0.000000	0.000000
31.682593	24.821062	11.481391	0.148563	-0.190821	3.061444	0.000000	-0.017504	0.000000	0.000019	-0.000000	0.000000	0.000000
32.017177	24.726258	11.619187	0.134785	-0.221023	3.055587	0.000000	-0.017504	0.000000	0.000019	-0.000000	0.000000	0.000000
32.314499	24.649749	11.758597	0.058147	-0.217144	3.050383	0.000000	-0.009536	0.000000	0.000019	-0.000000	0.000000	0.000000
32.863559	24.163565	12.236259	0.822095	-0.657954	3.020259	0.000000	-0.100033	0.000000	0.000019	-0.000001	0.000000	0.000000
33.412619	22.865551	13.220724	1.527974	-1.145629	2.940861	0.000000	-0.188757	0.000000	0.000018	-0.000002	0.000000	0.000000
33.961679	20.847394	14.782113	2.125925	-1.714905	2.813598	0.000000	-0.274132	0.000000	0.000017	-0.000002	0.000000	0.000000
34.510739	18.251645	17.031641	2.573710	-2.406330	2.640726	0.000000	-0.354645	0.000000	0.000016	-0.000003	0.000000	0.000000
34.956699	16.233339	19.043763	1.968258	-2.086721	2.498915	0.000000	-0.281700	0.000000	0.000015	-0.000002	0.000000	0.000000
35.397659	14.728319	20.707945	1.457743	-1.672914	2.390082	0.000000	-0.212392	0.000000	0.000014	-0.000002	0.000000	0.000000
35.838619	13.642573	21.972095	1.013829	-1.182990	2.311249	0.000000	-0.145503	0.000000	0.000013	-0.000001	0.000000	0.000000
36.279579	12.926497	22.778696	0.616233	-0.639241	2.261518	0.000000	-0.080272	0.000000	0.000013	-0.000001	0.000000	0.000000
36.721789	12.546681	23.091356	0.277451	-0.123082	2.240296	0.000000	-0.021447	0.000000	0.000012	-0.000001	0.000000	0.000000
37.019112	12.389285	23.168432	0.251930	-0.136153	2.233919	0.000000	-0.021447	0.000000	0.000012	-0.000001	0.000000	0.000000
37.352445	12.230869	23.264085	0.223317	-0.150807	2.226770	0.000000	-0.021447	0.000000	0.000012	-0.000001	0.000000	0.000000
37.685779	12.091529	23.369508	0.194704	-0.165461	2.219621	0.000000	-0.021447	0.000000	0.000011	-0.000001	0.000000	0.000000
38.020362	11.970848	23.485150	0.165984	-0.180170	2.212446	0.000000	-0.021447	0.000000	0.000011	-0.000001	0.000000	0.000000
38.317684	11.879734	23.596174	0.169593	-0.251100	2.206069	0.000000	-0.026857	0.000000	0.000011	-0.000001	0.000000	0.000000
38.758644	11.881621	23.556267	-0.173887	0.341257	2.208156	0.000000	0.036331	0.000000	0.000010	-0.000001	0.000000	0.000000
39.199604	12.188774	22.998825	-0.525311	0.918087	2.238172	0.000000	0.099933	0.000000	0.000010	-0.000000	0.000000	0.000000
39.640564	12.815227	21.949211	-0.900736	1.453146	2.296457	0.000000	0.164674	0.000000	0.000010	-0.000000	0.000000	0.000000
40.081524	13.789601	20.455183	-1.317312	1.922087	2.383676	0.000000	0.231289	0.000000	0.000010	0.000000	0.000000	0.000000
40.527484	15.173988	18.562146	-1.797900	2.304858	2.502294	0.000000	0.300945	0.000000	0.000010	0.000000	0.000000	0.000000
41.076544	16.940619	16.434841	-1.400608	1.592461	2.646997	0.000000	0.225373	0.000000	0.000010	0.000000	0.000000	0.000000
41.625604	18.213734	15.023329	-0.904384	0.993491	2.749047	0.000000	0.145805	0.000000	0.000010	-0.000000	0.000000	0.000000
42.174664	18.903408	14.227073	-0.344280	0.465286	2.806633	0.000000	0.063650	0.000000	0.000010	-0.000001	0.000000	0.000000
42.723724	18.960925	13.989357	0.240143	-0.029778	2.818735	0.000000	-0.019634	0.000000	0.000010	-0.000001	0.000000	0.000000
43.022297	18.851978	13.991686	0.174287	-0.014573	2.815072	0.000000	-0.012270	0.000000	0.000009	-0.000001	0.000000	0.000000
43.502297	18.697255	14.022147	0.148052	-0.048887	2.809183	0.000000	-0.012270	0.000000	0.000009	-0.000001	0.000000	0.000000
43.982297	18.567718	14.085549	0.121817	-0.083200	2.803294	0.000000	-0.012270	0.000000	0.000009	-0.000001	0.000000	0.000000
44.462297	18.463366	14.181892	0.095582	-0.117514	2.797404	0.000000	-0.012270	0.000000	0.000008	-0.000001	0.000000	0.000000
44.942297	18.384200	14.311175	0.069347	-0.151827	2.791515	0.000000	-0.012270	0.000000	0.000008	-0.000001	0.000000	0.000000
45.423547	18.330338	14.473686	-0.047774	-0.114518	2.785628	0.000000	0.001532	0.000000	0.000007	-0.000001	0.000000	0.000000
45.720870	18.363581	14.547971	-0.112010	-0.097321	2.786084	0.000000	0.008811	0.000000	0.000007	-0.000001	0.000000	0.000000
46.269930	18.177374	14.936203	0.449139	-0.613937	2.768347	0.000000	-0.073324	0.000000	0.000007	-0.000001	0.000000	0.000000
46.818990	17.388812	15.912281	0.978562	-1.174283	2.705805	0.000000	-0.154158	0.000000	0.000006	-0.000001	0.000000	0.000000
47.368050	16.053595	17.545730	1.438865	-1.818270	2.599567	0.000000	-0.232258	0.000000	0.000005	-0.000001	0.000000	0.000000
47.917110	14.266037	19.952897	1.797533	-2.591768	2.451516	0.000000	-0.306238	0.000000	0.000004	-0.000002	0.000000	0.000000
48.363070	12.874981	22.093063	1.332757	-2.187067	2.330240	0.000000	-0.237935	0.000000	0.000004	-0.000001	0.000000	0.000000
48.804030	11.879806	23.806627	0.932641	-1.684131	2.239782	0.000000	-0.172738	0.000000	0.000003	-0.000001	0.000000	0.000000
49.244990	11.217450	25.041029	0.575134	-1.104567	2.177611	0.000000	-0.109509	0.000000	0.000002	-0.000001	0.000000	0.000000
49.685950	10.857652	25.740104	0.243904	-0.474747	2.143022	0.000000	-0.047527	0.000000	0.000002	-0.000001	0.000000	0.000000
50.128160	10.784097	25.871761	-0.049854	0.113180	2.135629	0.000000	0.008676	0.000000	0.000001	-0.000001	0.000000	0.000000
50.425482	10.821961	25.807920	-0.077493	0.101541	2.138209	0.000000	0.008676	0.000000	0.000001	-0.000001	0.000000	0.000000
50.758816	10.883952	25.744576	-0.108480	0.088492	2.141101	0.000000	0.008676	0.000000	0.000001	-0.000001	0.000000	0.000000
51.092149	10.966600	25.689931	-0.139466	0.075442	2.143994	0.000000	0.008676	0.000000	0.000000	-0.000001	0.000000	0.000000
51.426732	11.070108	25.644350	-0.080761	-0.145695	2.146875	0.000000	-0.008741	0.000000	-0.000000	-0.000001	0.000000	0.000000
51.724055	11.126170	25.734507	-0.080510	-0.220645	2.144277	0.000000	-0.013999	0.000000	-0.000001	-0.000001	0.000000	0.000000
52.165015	11.342450	25.642788	-0.411826	0.427852	2.151693	0.000000	0.047665	0.000000	-0.000001	-0.000001	0.000000	0.000000
52.605975	11.858085	24.985579	-0.761957	1.056881	2.186394	0.000000	0.109872	0.000000	-0.000002	-0.000001	0.000000	0.000000
53.046935	12.696633	23.792783	-1.146900	1.637824	2.248775	0.000000	0.173330	0.000000	-0.000002	-0.000001	0.000000	0.000000
53.487895	13.896406	22.118671	-1.584242	2.144246	2.339547	0.000000	0.238762	0.000000	-0.000003	-0.000001	0.000000	0.000000
53.933855	15.532784	20.014383	-2.098191	2.554445	2.461249	0.000000	0.307312	0.000000	-0.000004	-0.000001	0.000000	0.000000
54.482915	17.639582	17.646512	-1.716195	1.783603	2.609802	0.000000	0.233009	0.000000	-0.000004	-0.000001	0.000000	0.000000
55.031975	19.257450	16.050806	-1.212976	1.139803	2.716363	0.000000	0.154572	0.000000	-0.000005	-0.000001	0.000000	0.000000
55.581035	20.272109	15.113606	-0.624078	0.577189	2.779039	0.000000	0.073394	0.000000	-0.000006	-0.000001	0.000000	0.000000
56.130095	20.611889	14.768157	0.008901	0.055688	2.796720	0.000000	-0.009086	0.000000	-0.000006	-0.000001	0.000000	0.000000
56.428668	20.643068	14.717951	-0.059471	0.073879	2.796189	0.000000	-0.001779	0.000000	-0.000006	-0.000001	0.000000	0.000000
56.762001	20.688117	14.676289	-0.075676	0.051107	2.795596	0.000000	-0.001779	0.000000	-0.000007	-0.000001	0.000000	0.000000
57.095334	20.743969	14.649808	-0.091880	0.028336	2.795004	0.000000	-0.001779	0.000000	-0.000007	-0.000001	0.000000	0.000000
57.429918	20.810894	14.638494	-0.108146	0.005479	2.794409	0.000000	-0.001779	0.000000	-0.000007	-0.000001	0.000000	0.000000
57.727240	20.879500	14.641275	-0.177157	0.023424	2.793880	0.000000	0.005522	0.000000	-0.000007	-0.000001	0.000000	0.000000
58.276300	20.717840	14.896688	0.469844	-0.491351	2.774274	0.000000	-0.076835	0.000000	-0.000008	-0.000001	0.000000	0.000000
58.825360	19.859794	15.733171	1.083659	-1.041124	2.709757	0.000000	-0.157830	0.000000	-0.000008	-0.000000	0.000000	0.000000
59.374420	18.365970	17.210306	1.620929	-1.665055	2.601473	0.000000	-0.236024	0.000000	-0.000008	-0.000000	0.000000	0.000000
59.923480	16.341885	19.433306	2.043705	-2.407583	2.451343	0.000000	-0.310032	0.000000	-0.000008	0.000000	0.000000	0.000000
60.369440	14.757662	21.409120	1.521264	-2.004189	2.328370	0.000000	-0.241756	0.000000	-0.000008	-0.000000	0.000000	0.000000
60.810400	13.618227	22.965090	1.072528	-1.510980	2.236212	0.000000	-0.176629	0.000000	-0.000008	-0.000000	0.000000	0.000000
61.251360	12.851519	24.053996	0.672793	-0.949023	2.172302	0.000000	-0.113515	0.000000	-0.000008	-0.000000	0.000000	0.000000
61.692320	12.422509	24.626296	0.303796	-0.343887	2.135912	0.000000	-0.051693	0.000000	-0.000009	-0.000001	0.000000	0.000000
62.134530	12.311652	24.655408	-0.021229	0.216375	2.126633	0.000000	0.004324	0.000000	-0.000009	-0.000001	0.000000	0.000000
62.431853	12.331459	24.530495	-0.045389	0.203751	2.127919	0.000000	0.004324	0.000000	-0.000009	-0.000001	0.000000	0.000000
62.765186	12.370747	24.399378	-0.072476	0.189598	2.129361	0.000000	0.004324	0.000000	-0.000010	-0.000001	0.000000	0.000000
63.098520	12.428094	24.277697	-0.099563	0.175446	2.130802	0.000000	0.004324	0.000000	-0.000010	-0.000001	0.000000	0.000000
63.433103	12.503815	24.165047	-0.126751	0.161240	2.132250	0.000000	0.004324	0.000000	-0.000010	-0.000001	0.000000	0.000000
63.730426	12.586370	24.072920	-0.120043	0.089576	2.133536	0.000000	-0.000908	0.000000	-0.000011	-0.000001	0.000000	0.000000
64.171386	12.852533	23.728808	-0.485845	0.687825	2.146674	0.000000	0.060553	0.000000	-0.000011	-0.000001	0.000000	0.000000
64.612346	13.449836	22.868925	-0.873844	1.254778	2.187040	0.000000	0.122703	0.000000	-0.000012	-0.000001	0.000000	0.000000
65.053306	14.405567	21.532397	-1.301766	1.764640	2.255094	0.000000	0.186251	0.000000	-0.000012	-0.000002	0.000000	0.000000
65.494266	15.763391	19.780033	-1.789162	2.194212	2.351611	0.000000	0.251920	0.000000	-0.000013	-0.000002	0.000000	0.000000
65.940226	17.608504	17.666770	-2.362992	2.524703	2.479262	0.000000	0.320860	0.000000	-0.000014	-0.000002	0.000000	0.000000
66.489286	19.973814	15.302700	-1.919435	1.806382	2.635073	0.000000	0.245856	0.000000	-0.000015	-0.000002	0.000000	0.000000
67.038346	21.774260	13.652573	-1.340299	1.216725	2.748442	0.000000	0.166490	0.000000	-0.000016	-0.000001	0.000000	0.000000
67.587406	22.882669	12.598855	-0.666491	0.713734	2.817358	0.000000	0.084171	0.000000	-0.000017	-0.000001	0.000000	0.000000
68.136466	23.220748	12.066492	0.054394	0.261579	2.840599	0.000000	0.000359	0.000000	-0.000017	-0.000000	0.000000	0.000000
68.435038	23.228341	11.899485	-0.019145	0.266242	2.842922	0.000000	0.007782	0.000000	-0.000017	-0.000000	0.000000	0.000000
68.768372	23.245889	11.731989	-0.033500	0.236244	2.845517	0.000000	0.007782	0.000000	-0.000017	-0.000000	0.000000	0.000000
69.101705	23.273008	11.584493	-0.047856	0.206246	2.848111	0.000000	0.007782	0.000000	-0.000018	-0.000000	0.000000	0.000000
69.436288	23.309853	11.456555	-0.062265	0.176135	2.850715	0.000000	0.007782	0.000000	-0.000018	-0.000000	0.000000	0.000000
69.733611	23.350686	11.359772	-0.136090	0.179063	2.853029	0.000000	0.015238	0.000000	-0.000018	-0.000000	0.000000	0.000000
70.282671	23.099092	11.390646	0.591604	-0.235625	2.838216	0.000000	-0.069113	0.000000	-0.000018	0.000000	0.000000	0.000000
