#ParticleID	Turn	x[m]	xp	y[m]	yp	z[m]	dE[GeV]# s	beta_x	beta_y	alpha_x	alpha_y	D_x	D_y	D_px	D_py	orbit_x	orbit_px	orbit_y	orbit_py
0.300000	11.811718	25.027543	-0.010777	-0.027195	2.618067	0.000000	0.000029	0.000000	-0.000000	0.000001	0.000000	0.000000
0.601250	11.825895	25.047557	-0.036285	-0.039240	2.618075	0.000000	0.000029	0.000000	-0.000000	0.000001	0.000000	0.000000
0.898573	11.854957	25.074426	-0.032388	-0.112618	2.618084	0.000000	-0.006391	0.000000	0.000000	0.000001	0.000000	0.000000
1.339533	12.035624	24.895598	-0.378879	0.516617	2.631558	0.000000	0.067566	0.000000	0.000001	0.000001	0.000000	0.000000
1.780493	12.528318	24.170119	-0.742680	1.122347	2.677783	0.000000	0.142292	0.000000	0.000002	0.000001	0.000000	0.000000
2.221453	13.355548	22.930999	-1.140412	1.677011	2.757284	0.000000	0.218639	0.000000	0.000002	0.000001	0.000000	0.000000
2.662413	14.555109	21.234616	-1.590247	2.155372	2.870968	0.000000	0.297475	0.000000	0.000003	0.000002	0.000000	0.000000
3.108373	16.202543	19.133277	-2.117023	2.536798	3.021991	0.000000	0.380190	0.000000	0.000004	0.000002	0.000000	0.000000
3.657433	18.315110	16.773149	-1.707806	1.787062	3.205466	0.000000	0.287152	0.000000	0.000004	0.000001	0.000000	0.000000
4.206493	19.909004	15.162012	-1.177959	1.164614	3.336381	0.000000	0.189020	0.000000	0.000005	0.000001	0.000000	0.000000
4.755553	20.871641	14.185107	-0.564906	0.625119	3.412416	0.000000	0.087536	0.000000	0.000006	0.000001	0.000000	0.000000
5.304613	21.135023	13.772853	0.088049	0.130150	3.432220	0.000000	-0.015500	0.000000	0.000006	0.000001	0.000000	0.000000
5.603185	21.119641	13.680298	0.018688	0.143857	3.430269	0.000000	-0.006533	0.000000	0.000007	0.000001	0.000000	0.000000
5.936519	21.112445	13.592683	0.002900	0.118987	3.428091	0.000000	-0.006533	0.000000	0.000007	0.000001	0.000000	0.000000
6.269852	21.115775	13.521649	-0.012889	0.094117	3.425913	0.000000	-0.006533	0.000000	0.000007	0.000001	0.000000	0.000000
6.604435	21.129702	13.467021	-0.028737	0.069153	3.423727	0.000000	-0.006533	0.000000	0.000008	0.000001	0.000000	0.000000
6.901758	21.150978	13.432495	-0.098080	0.082064	3.421784	0.000000	0.002407	0.000000	0.000008	0.000001	0.000000	0.000000
7.450818	20.898214	13.603232	0.555711	-0.394861	3.394903	0.000000	-0.100177	0.000000	0.000008	0.000001	0.000000	0.000000
7.999878	19.944915	14.309968	1.170250	-0.899911	3.312103	0.000000	-0.200984	0.000000	0.000009	0.000000	0.000000	0.000000
8.548938	18.358416	15.603043	1.702128	-1.469060	3.174853	0.000000	-0.298227	0.000000	0.000009	0.000000	0.000000	0.000000
9.097998	16.250779	17.574560	2.113776	-2.142847	2.985586	0.000000	-0.390179	0.000000	0.000009	-0.000000	0.000000	0.000000
9.543958	14.606454	19.331272	1.586492	-1.779672	2.829889	0.000000	-0.308469	0.000000	0.000009	0.000000	0.000000	0.000000
9.984918	13.410490	20.710742	1.135979	-1.336757	2.711113	0.000000	-0.230757	0.000000	0.000009	0.000000	0.000000	0.000000
10.425878	12.587543	21.671182	0.737365	-0.833021	2.625994	0.000000	-0.155673	0.000000	0.000009	0.000001	0.000000	0.000000
10.866838	12.100013	22.168893	0.372439	-0.291383	2.573562	0.000000	-0.082362	0.000000	0.000010	0.000001	0.000000	0.000000
11.309048	11.925494	22.180706	0.053666	0.209064	2.553199	0.000000	-0.016250	0.000000	0.000010	0.000001	0.000000	0.000000
11.606371	11.901016	22.060547	0.028662	0.195074	2.548367	0.000000	-0.016250	0.000000	0.000010	0.000001	0.000000	0.000000
12.086371	11.892876	21.884118	-0.011704	0.172487	2.540566	0.000000	-0.016250	0.000000	0.000011	0.000001	0.000000	0.000000
12.566371	11.923487	21.729372	-0.052069	0.149901	2.532766	0.000000	-0.016250	0.000000	0.000011	0.000001	0.000000	0.000000
13.046371	11.992849	21.596308	-0.092435	0.127315	2.524966	0.000000	-0.016250	0.000000	0.000012	0.000001	0.000000	0.000000
13.526371	12.100963	21.484928	-0.132801	0.104728	2.517165	0.000000	-0.016250	0.000000	0.000012	0.000001	0.000000	0.000000
14.007621	12.248260	21.395024	-0.173272	0.082083	2.509344	0.000000	-0.016250	0.000000	0.000013	0.000001	0.000000	0.000000
14.304943	12.358730	21.350374	-0.167972	0.015742	2.504513	0.000000	-0.022391	0.000000	0.000013	0.000001	0.000000	0.000000
14.745903	12.665391	21.102814	-0.530106	0.543531	2.510272	0.000000	0.048538	0.000000	0.000014	0.000001	0.000000	0.000000
15.186863	13.300859	20.398956	-0.916459	1.046590	2.547400	0.000000	0.120021	0.000000	0.000014	0.000002	0.000000	0.000000
15.627823	14.294164	19.270823	-1.344683	1.502030	2.616319	0.000000	0.192870	0.000000	0.000015	0.000002	0.000000	0.000000
16.068783	15.690690	17.769745	-1.834342	1.889129	2.717816	0.000000	0.267915	0.000000	0.000016	0.000002	0.000000	0.000000
16.514743	17.577895	15.942518	-2.412564	2.191017	2.854740	0.000000	0.346475	0.000000	0.000017	0.000003	0.000000	0.000000
17.063803	20.001772	13.902265	-1.975895	1.546818	3.021240	0.000000	0.259131	0.000000	0.000019	0.000002	0.000000	0.000000
17.612863	21.866191	12.505131	-1.399658	1.012795	3.138450	0.000000	0.167191	0.000000	0.000020	0.000002	0.000000	0.000000
18.161923	23.039459	11.651600	-0.724557	0.550911	3.204289	0.000000	0.072285	0.000000	0.000021	0.000001	0.000000	0.000000
18.710983	23.438701	11.280879	0.001724	0.128267	3.217591	0.000000	-0.023903	0.000000	0.000021	0.000000	0.000000	0.000000
19.009556	23.478052	11.194786	-0.072290	0.130611	3.212964	0.000000	-0.015498	0.000000	0.000021	0.000000	0.000000	0.000000
19.342889	23.531003	11.117807	-0.086562	0.100327	3.207798	0.000000	-0.015498	0.000000	0.000021	0.000000	0.000000	0.000000
19.676223	23.593468	11.061017	-0.100834	0.070044	3.202632	0.000000	-0.015498	0.000000	0.000021	0.000000	0.000000	0.000000
20.010806	23.666029	11.024180	-0.232414	0.094267	3.197466	0.000000	0.000345	0.000000	0.000022	0.000001	0.000000	0.000000
20.308129	23.808170	10.976215	-0.307851	0.095731	3.197568	0.000000	0.008698	0.000000	0.000022	0.000001	0.000000	0.000000
20.857189	23.735592	11.093180	0.439253	-0.310017	3.176120	0.000000	-0.086710	0.000000	0.000022	-0.000000	0.000000	0.000000
21.406249	22.854856	11.665144	1.155331	-0.737847	3.102633	0.000000	-0.180579	0.000000	0.000022	-0.000001	0.000000	0.000000
21.955309	21.228171	12.732846	1.789801	-1.218231	2.978412	0.000000	-0.271245	0.000000	0.000021	-0.000002	0.000000	0.000000
22.504369	18.970440	14.372337	2.297849	-1.785388	2.805659	0.000000	-0.357100	0.000000	0.000020	-0.000002	0.000000	0.000000
22.950329	17.191107	15.844329	1.706125	-1.501413	2.663704	0.000000	-0.279879	0.000000	0.000019	-0.000002	0.000000	0.000000
23.391289	15.915762	17.017953	1.197046	-1.149978	2.556613	0.000000	-0.206300	0.000000	0.000019	-0.000001	0.000000	0.000000
23.832249	15.063663	17.857295	0.742657	-0.746221	2.481420	0.000000	-0.135071	0.000000	0.000018	-0.000001	0.000000	0.000000
24.273209	14.595879	18.324166	0.322198	-0.308510	2.437266	0.000000	-0.065381	0.000000	0.000018	-0.000000	0.000000	0.000000
24.715418	14.491159	18.397078	-0.048098	0.098060	2.423647	0.000000	-0.002377	0.000000	0.000018	0.000000	0.000000	0.000000
25.012741	14.525874	18.343619	-0.068663	0.081743	2.422940	0.000000	-0.002377	0.000000	0.000018	0.000000	0.000000	0.000000
25.346075	14.579335	18.295221	-0.091718	0.063450	2.422148	0.000000	-0.002377	0.000000	0.000018	0.000000	0.000000	0.000000
25.679408	14.648165	18.259019	-0.114774	0.045157	2.421355	0.000000	-0.002377	0.000000	0.000018	0.000000	0.000000	0.000000
26.013991	14.732412	18.235314	-0.018397	-0.121138	2.420535	0.000000	-0.022014	0.000000	0.000018	0.000000	0.000000	0.000000
26.311314	14.749355	18.312267	-0.002422	-0.182582	2.413990	0.000000	-0.027933	0.000000	0.000018	-0.000000	0.000000	0.000000
26.752274	14.933205	18.274698	-0.416090	0.267456	2.416786	0.000000	0.040625	0.000000	0.000018	0.000000	0.000000	0.000000
27.193234	15.488849	17.844103	-0.848769	0.705324	2.449885	0.000000	0.109645	0.000000	0.000019	0.000001	0.000000	0.000000
27.634194	16.441675	17.040072	-1.320225	1.111101	2.513666	0.000000	0.179914	0.000000	0.000019	0.000001	0.000000	0.000000
28.075154	17.835212	15.899189	-1.851999	1.466323	2.608854	0.000000	0.252232	0.000000	0.000020	0.000002	0.000000	0.000000
28.521114	19.757338	14.456177	-2.473353	1.755741	2.738137	0.000000	0.327866	0.000000	0.000021	0.000002	0.000000	0.000000
29.070174	22.200373	12.848406	-1.949791	1.189767	2.895485	0.000000	0.244448	0.000000	0.000022	0.000002	0.000000	0.000000
29.619234	23.988981	11.812239	-1.288505	0.708537	3.005773	0.000000	0.156695	0.000000	0.000023	0.000001	0.000000	0.000000
30.168294	24.996822	11.273873	-0.536205	0.277775	3.067044	0.000000	0.066162	0.000000	0.000023	0.000000	0.000000	0.000000
30.717354	25.152709	11.194960	0.253970	-0.133203	3.078211	0.000000	-0.025544	0.000000	0.000023	-0.000000	0.000000	0.000000
31.015927	25.043958	11.265087	0.175972	-0.130916	3.072985	0.000000	-0.017503	0.000000	0.000023	-0.000000	0.000000	0.000000
31.349260	24.931218	11.362397	0.162250	-0.161013	3.067151	0.000000	-0.017503	0.000000	0.000023	-0.000000	0.000000	0.000000
31.682593	24.827625	11.479771	0.148528	-0.191110	3.061316	0.000000	-0.017503	0.000000	0.000023	-0.000000	0.000000	0.000000
32.017177	24.732844	11.617764	0.134754	-0.221320	3.055460	0.000000	-0.017503	0.000000	0.000022	-0.000000	0.000000	0.000000
32.314499	24.656352	11.757353	0.058104	-0.217452	3.050256	0.000000	-0.009535	0.000000	0.000022	-0.000000	0.000000	0.000000
32.863559	24.170094	12.235341	0.822271	-0.658244	3.020134	0.000000	-0.100029	0.000000	0.000022	-0.000001	0.000000	0.000000
33.412619	22.871772	13.220124	1.528356	-1.145922	2.940740	0.000000	-0.188748	0.000000	0.000021	-0.000002	0.000000	0.000000
33.961679	20.853094	14.781845	2.126486	-1.715221	2.813483	0.000000	-0.274119	0.000000	0.000020	-0.000002	0.000000	0.000000
34.510739	18.256648	17.031743	2.574411	-2.406692	2.640619	0.000000	-0.354629	0.000000	0.000019	-0.000003	0.000000	0.000000
34.956699	16.237787	19.044205	1.968807	-2.087117	2.498815	0.000000	-0.281687	0.000000	0.000017	-0.000003	0.000000	0.000000
35.397659	14.732339	20.708743	1.458166	-1.673324	2.389987	0.000000	-0.212381	0.000000	0.000016	-0.000002	0.000000	0.000000
35.838619	13.646268	21.973255	1.014145	-1.183396	2.311158	0.000000	-0.145495	0.000000	0.000015	-0.000002	0.000000	0.000000
36.279579	12.929954	22.780205	0.616458	-0.639625	2.261431	0.000000	-0.080265	0.000000	0.000015	-0.000001	0.000000	0.000000
36.721789	12.549977	23.093187	0.277602	-0.123429	2.240211	0.000000	-0.021443	0.000000	0.000014	-0.000001	0.000000	0.000000
37.019112	12.392489	23.170470	0.252085	-0.136500	2.233836	0.000000	-0.021443	0.000000	0.000014	-0.000001	0.000000	0.000000
37.352445	12.233968	23.266355	0.223478	-0.151154	2.226689	0.000000	-0.021443	0.000000	0.000014	-0.000001	0.000000	0.000000
37.685779	12.094519	23.372009	0.194870	-0.165808	2.219541	0.000000	-0.021443	0.000000	0.000013	-0.000001	0.000000	0.000000
38.020362	11.973725	23.487884	0.166156	-0.180517	2.212367	0.000000	-0.021443	0.000000	0.000013	-0.000001	0.000000	0.000000
38.317684	11.882508	23.599114	0.169775	-0.251454	2.205992	0.000000	-0.026852	0.000000	0.000013	-0.000001	0.000000	0.000000
38.758644	11.884262	23.559483	-0.173766	0.340986	2.208081	0.000000	0.036334	0.000000	0.000012	-0.000001	0.000000	0.000000
39.199604	12.191333	23.002239	-0.525246	0.917912	2.238097	0.000000	0.099934	0.000000	0.000012	-0.000000	0.000000	0.000000
39.640564	12.817752	21.952735	-0.900723	1.453073	2.296382	0.000000	0.164673	0.000000	0.000012	-0.000000	0.000000	0.000000
40.081524	13.792138	20.458725	-1.317352	1.922120	2.383600	0.000000	0.231286	0.000000	0.000012	0.000000	0.000000	0.000000
40.527484	15.176585	18.565610	-1.797994	2.304998	2.502216	0.000000	0.300940	0.000000	0.000012	0.000000	0.000000	0.000000
41.076544	16.943264	16.438202	-1.400602	1.592508	2.646917	0.000000	0.225371	0.000000	0.000012	0.000000	0.000000	0.000000
41.625604	18.216318	15.026688	-0.904279	0.993450	2.748967	0.000000	0.145805	0.000000	0.000012	-0.000000	0.000000	0.000000
42.174664	18.905824	14.230527	-0.344082	0.465153	2.806554	0.000000	0.063652	0.000000	0.000012	-0.000001	0.000000	0.000000
42.723724	18.963080	13.993010	0.240420	-0.030012	2.818658	0.000000	-0.019629	0.000000	0.000011	-0.000001	0.000000	0.000000
43.022297	18.853970	13.995473	0.174559	-0.014793	2.814996	0.000000	-0.012265	0.000000	0.000011	-0.000001	0.000000	0.000000
43.502297	18.698987	14.026140	0.148324	-0.049097	2.809109	0.000000	-0.012265	0.000000	0.000011	-0.000001	0.000000	0.000000
43.982297	18.569188	14.089739	0.122090	-0.083401	2.803223	0.000000	-0.012265	0.000000	0.000010	-0.000001	0.000000	0.000000
44.462297	18.464575	14.186271	0.095855	-0.117706	2.797336	0.000000	-0.012265	0.000000	0.000010	-0.000001	0.000000	0.000000
44.942297	18.385146	14.315734	0.069620	-0.152010	2.791449	0.000000	-0.012265	0.000000	0.000009	-0.000001	0.000000	0.000000
45.423547	18.331022	14.478416	-0.047505	-0.114669	2.785564	0.000000	0.001536	0.000000	0.000009	-0.000001	0.000000	0.000000
45.720870	18.364104	14.552789	-0.111739	-0.097453	2.786021	0.000000	0.008815	0.000000	0.000008	-0.000001	0.000000	0.000000
46.269930	18.177593	14.941248	0.449419	-0.614219	2.768288	0.000000	-0.073318	0.000000	0.000008	-0.000001	0.000000	0.000000
46.818990	17.388727	15.917727	0.978832	-1.174735	2.705750	0.000000	-0.154150	0.000000	0.000007	-0.000001	0.000000	0.000000
47.368050	16.053228	17.551781	1.439106	-1.818925	2.599517	0.000000	-0.232248	0.000000	0.000006	-0.000002	0.000000	0.000000
47.917110	14.265429	19.959798	1.797728	-2.592672	2.451472	0.000000	-0.306227	0.000000	0.000005	-0.000002	0.000000	0.000000
48.363070	12.874203	22.100706	1.332945	-2.187817	2.330201	0.000000	-0.237924	0.000000	0.000004	-0.000002	0.000000	0.000000
48.804030	11.878863	23.814850	0.932830	-1.684692	2.239747	0.000000	-0.172729	0.000000	0.000004	-0.000002	0.000000	0.000000
49.244990	11.216336	25.049654	0.575333	-1.104915	2.177581	0.000000	-0.109501	0.000000	0.000003	-0.000002	0.000000	0.000000
49.685950	10.856354	25.748935	0.244122	-0.474865	2.142995	0.000000	-0.047520	0.000000	0.000002	-0.000001	0.000000	0.000000
50.128160	10.782595	25.880593	-0.049610	0.113275	2.135605	0.000000	0.008683	0.000000	0.000002	-0.000001	0.000000	0.000000
50.425482	10.820314	25.816694	-0.077253	0.101640	2.138187	0.000000	0.008683	0.000000	0.000001	-0.000001	0.000000	0.000000
50.758816	10.882146	25.753283	-0.108243	0.088595	2.141082	0.000000	0.008683	0.000000	0.000001	-0.000001	0.000000	0.000000
51.092149	10.964638	25.698568	-0.139233	0.075550	2.143977	0.000000	0.008683	0.000000	0.000000	-0.000001	0.000000	0.000000
51.426732	11.067991	25.652914	-0.080548	-0.145653	2.146861	0.000000	-0.008733	0.000000	-0.000000	-0.000001	0.000000	0.000000
51.724055	11.123927	25.743045	-0.080307	-0.220620	2.144265	0.000000	-0.013992	0.000000	-0.000001	-0.000001	0.000000	0.000000
52.165015	11.340004	25.651204	-0.411567	0.428102	2.151684	0.000000	0.047672	0.000000	-0.000001	-0.000001	0.000000	0.000000
52.605975	11.855381	24.993680	-0.761630	1.057345	2.186389	0.000000	0.109878	0.000000	-0.000002	-0.000001	0.000000	0.000000
53.046935	12.693606	23.800388	-1.146490	1.638480	2.248773	0.000000	0.173337	0.000000	-0.000003	-0.000002	0.000000	0.000000
53.487895	13.892974	22.125623	-1.583730	2.145065	2.339548	0.000000	0.238769	0.000000	-0.000003	-0.000002	0.000000	0.000000
53.933855	15.528841	20.020546	-2.097554	2.555389	2.461253	0.000000	0.307319	0.000000	-0.000004	-0.000002	0.000000	0.000000
54.482915	17.634992	17.651773	-1.715661	1.784310	2.609810	0.000000	0.233015	0.000000	-0.000005	-0.000002	0.000000	0.000000
55.031975	19.252346	16.055397	-1.212582	1.140324	2.716374	0.000000	0.154579	0.000000	-0.000006	-0.000001	0.000000	0.000000
55.581035	20.266663	15.117710	-0.623853	0.577561	2.779054	0.000000	0.073400	0.000000	-0.000007	-0.000001	0.000000	0.000000
56.130095	20.606296	14.771924	0.008942	0.055936	2.796738	0.000000	-0.009081	0.000000	-0.000007	-0.000001	0.000000	0.000000
56.428668	20.637443	14.721562	-0.059420	0.074142	2.796209	0.000000	-0.001773	0.000000	-0.000007	-0.000001	0.000000	0.000000
56.762001	20.682459	14.679723	-0.075629	0.051375	2.795618	0.000000	-0.001773	0.000000	-0.000008	-0.000001	0.000000	0.000000
57.095334	20.738282	14.653062	-0.091838	0.028608	2.795027	0.000000	-0.001773	0.000000	-0.000008	-0.000001	0.000000	0.000000
57.429918	20.805180	14.641565	-0.108107	0.005755	2.794435	0.000000	-0.001773	0.000000	-0.000008	-0.000001	0.000000	0.000000
57.727240	20.873764	14.644181	-0.177109	0.023713	2.793908	0.000000	0.005527	0.000000	-0.000009	-0.000001	0.000000	0.000000
58.276300	20.712156	14.899320	0.469701	-0.491140	2.774304	0.000000	-0.076831	0.000000	-0.000009	-0.000001	0.000000	0.000000
58.825360	19.854369	15.735607	1.083334	-1.040976	2.709789	0.000000	-0.157826	0.000000	-0.000010	-0.000000	0.000000	0.000000
59.374420	18.360993	17.212608	1.620445	-1.664958	2.601507	0.000000	-0.236022	0.000000	-0.000010	-0.000000	0.000000	0.000000
59.923480	16.337512	19.435527	2.043096	-2.407531	2.451378	0.000000	-0.310031	0.000000	-0.000010	0.000000	0.000000	0.000000
60.369440	14.753772	21.411259	1.520785	-2.004057	2.328406	0.000000	-0.241753	0.000000	-0.000010	-0.000000	0.000000	0.000000
60.810400	13.614709	22.967079	1.072157	-1.510776	2.236250	0.000000	-0.176626	0.000000	-0.000010	-0.000000	0.000000	0.000000
61.251360	12.848287	24.055777	0.672513	-0.948755	2.172342	0.000000	-0.113510	0.000000	-0.000010	-0.000001	0.000000	0.000000
61.692320	12.419489	24.627816	0.303594	-0.343567	2.135954	0.000000	-0.051688	0.000000	-0.000010	-0.000001	0.000000	0.000000
62.134530	12.308778	24.656628	-0.021368	0.216728	2.126677	0.000000	0.004331	0.000000	-0.000011	-0.000001	0.000000	0.000000
62.431853	12.328670	24.531505	-0.045535	0.204103	2.127965	0.000000	0.004331	0.000000	-0.000011	-0.000001	0.000000	0.000000
62.765186	12.368058	24.400155	-0.072628	0.189949	2.129409	0.000000	0.004331	0.000000	-0.000011	-0.000001	0.000000	0.000000
63.098520	12.425507	24.278241	-0.099721	0.175795	2.130853	0.000000	0.004331	0.000000	-0.000012	-0.000001	0.000000	0.000000
63.433103	12.501336	24.165358	-0.126916	0.161587	2.132302	0.000000	0.004331	0.000000	-0.000012	-0.000001	0.000000	0.000000
63.730426	12.583992	24.073025	-0.120219	0.089921	2.133590	0.000000	-0.000902	0.000000	-0.000012	-0.000001	0.000000	0.000000
64.171386	12.850287	23.728610	-0.485972	0.688164	2.146732	0.000000	0.060560	0.000000	-0.000013	-0.000001	0.000000	0.000000
64.612346	13.447681	22.868437	-0.873926	1.255095	2.187102	0.000000	0.122712	0.000000	-0.000013	-0.000002	0.000000	0.000000
65.053306	14.403467	21.531644	-1.301809	1.764921	2.255160	0.000000	0.186262	0.000000	-0.000014	-0.000002	0.000000	0.000000
65.494266	15.761311	19.779053	-1.789167	2.194445	2.351682	0.000000	0.251933	0.000000	-0.000015	-0.000002	0.000000	0.000000
65.940226	17.606411	17.665609	-2.362958	2.524875	2.479339	0.000000	0.320875	0.000000	-0.000016	-0.000003	0.000000	0.000000
66.489286	19.971731	15.301350	-1.919488	1.806555	2.635158	0.000000	0.245867	0.000000	-0.000018	-0.000002	0.000000	0.000000
67.038346	21.772282	13.651026	-1.340436	1.216913	2.748533	0.000000	0.166499	0.000000	-0.000019	-0.000002	0.000000	0.000000
67.587406	22.880883	12.597089	-0.666702	0.713948	2.817453	0.000000	0.084177	0.000000	-0.000020	-0.000001	0.000000	0.000000
68.136466	23.219228	12.064469	0.054124	0.261836	2.840696	0.000000	0.000362	0.000000	-0.000020	-0.000000	0.000000	0.000000
68.435038	23.226981	11.897313	-0.019413	0.266486	2.843021	0.000000	0.007785	0.000000	-0.000020	-0.000000	0.000000	0.000000
68.768372	23.244708	11.729658	-0.033770	0.236479	2.845616	0.000000	0.007785	0.000000	-0.000020	-0.000000	0.000000	0.000000
69.101705	23.272007	11.582007	-0.048126	0.206472	2.848211	0.000000	0.007785	0.000000	-0.000021	-0.000000	0.000000	0.000000
69.436288	23.309033	11.453921	-0.062536	0.176352	2.850816	0.000000	0.007785	0.000000	-0.000021	-0.000000	0.000000	0.000000
69.733611	23.350027	11.357012	-0.136362	0.179265	2.853131	0.000000	0.015241	0.000000	-0.000021	-0.000001	0.000000	0.000000
70.282671	23.098742	11.387620	0.591318	-0.235341	2.838320	0.000000	-0.069113	0.000000	-0.000021	0.000000	0.000000	0.000000
