#ParticleID	Turn	x[m]	xp	y[m]	yp	z[m]	dE[GeV]# s	beta_x	beta_y	alpha_x	alpha_y	D_x	D_y	D_px	D_py	orbit_x	orbit_px	orbit_y	orbit_py
0.300000	11.801538	25.065250	-0.009944	-0.026676	2.618399	0.000000	-0.000096	0.000000	-0.000002	0.000002	0.000000	0.000000
0.601250	11.815220	25.084946	-0.035473	-0.038703	2.618369	0.000000	-0.000096	0.000000	-0.000001	0.000002	0.000000	0.000000
0.898573	11.843805	25.111490	-0.031624	-0.112154	2.618340	0.000000	-0.006517	0.000000	-0.000000	0.000002	0.000000	0.000000
1.339533	12.023681	24.931822	-0.377841	0.518051	2.631760	0.000000	0.067445	0.000000	0.000000	0.000002	0.000000	0.000000
1.780493	12.515322	24.204674	-0.741321	1.124685	2.677932	0.000000	0.142176	0.000000	0.000001	0.000002	0.000000	0.000000
2.221453	13.341190	22.963130	-1.138670	1.680147	2.757383	0.000000	0.218526	0.000000	0.000002	0.000002	0.000000	0.000000
2.662413	14.539017	21.263680	-1.588041	2.159164	2.871018	0.000000	0.297365	0.000000	0.000003	0.000002	0.000000	0.000000
3.108373	16.184239	19.158728	-2.114250	2.541074	3.021991	0.000000	0.380080	0.000000	0.000004	0.000002	0.000000	0.000000
3.657433	18.294017	16.794490	-1.705530	1.790317	3.205405	0.000000	0.287043	0.000000	0.000005	0.000002	0.000000	0.000000
4.206493	19.885760	15.180230	-1.176341	1.167080	3.336261	0.000000	0.188914	0.000000	0.000006	0.000002	0.000000	0.000000
4.755553	20.847035	14.200968	-0.564060	0.626972	3.412238	0.000000	0.087435	0.000000	0.000007	0.000002	0.000000	0.000000
5.304613	21.109943	13.786953	0.088063	0.131521	3.431988	0.000000	-0.015595	0.000000	0.000008	0.000001	0.000000	0.000000
5.603185	21.094519	13.693554	0.018751	0.145277	3.430009	0.000000	-0.006629	0.000000	0.000008	0.000001	0.000000	0.000000
5.936519	21.087287	13.604988	0.002944	0.120421	3.427799	0.000000	-0.006629	0.000000	0.000009	0.000001	0.000000	0.000000
6.269852	21.090594	13.532993	-0.012864	0.095565	3.425589	0.000000	-0.006629	0.000000	0.000009	0.000001	0.000000	0.000000
6.604435	21.104510	13.477391	-0.028730	0.070616	3.423370	0.000000	-0.006629	0.000000	0.000010	0.000001	0.000000	0.000000
6.901758	21.125787	13.441992	-0.098023	0.083564	3.421399	0.000000	0.002310	0.000000	0.000010	0.000001	0.000000	0.000000
7.450818	20.873424	13.611221	0.554930	-0.393599	3.394468	0.000000	-0.100261	0.000000	0.000011	0.000001	0.000000	0.000000
7.999878	19.921421	14.316659	1.168686	-0.898796	3.311626	0.000000	-0.201053	0.000000	0.000011	0.000001	0.000000	0.000000
8.548938	18.337021	15.608555	1.699891	-1.468013	3.174342	0.000000	-0.298279	0.000000	0.000012	0.000000	0.000000	0.000000
9.097998	16.232139	17.578925	2.111025	-2.141794	2.985051	0.000000	-0.390215	0.000000	0.000012	-0.000000	0.000000	0.000000
9.543958	14.590004	19.334588	1.584313	-1.778381	2.829335	0.000000	-0.308519	0.000000	0.000012	0.000000	0.000000	0.000000
9.984918	13.395749	20.712837	1.134267	-1.335290	2.710534	0.000000	-0.230822	0.000000	0.000012	0.000001	0.000000	0.000000
10.425878	12.574134	21.671931	0.736043	-0.831445	2.625383	0.000000	-0.155753	0.000000	0.000012	0.000001	0.000000	0.000000
10.866838	12.087621	22.168230	0.371446	-0.289769	2.572911	0.000000	-0.082458	0.000000	0.000013	0.000001	0.000000	0.000000
11.309048	11.913852	22.178628	0.052927	0.210648	2.552502	0.000000	-0.016361	0.000000	0.000013	0.000001	0.000000	0.000000
11.606371	11.889819	22.057529	0.027901	0.196647	2.547637	0.000000	-0.016361	0.000000	0.000014	0.000001	0.000000	0.000000
12.086371	11.882427	21.879597	-0.012501	0.174045	2.539783	0.000000	-0.016361	0.000000	0.000014	0.000001	0.000000	0.000000
12.566371	11.913821	21.723364	-0.052903	0.151442	2.531929	0.000000	-0.016361	0.000000	0.000015	0.000001	0.000000	0.000000
13.046371	11.984001	21.588829	-0.093305	0.128839	2.524074	0.000000	-0.016361	0.000000	0.000016	0.000001	0.000000	0.000000
13.526371	12.092966	21.475993	-0.133707	0.106236	2.516220	0.000000	-0.016361	0.000000	0.000017	0.000001	0.000000	0.000000
14.007621	12.241154	21.384646	-0.174214	0.083575	2.508346	0.000000	-0.016361	0.000000	0.000017	0.000001	0.000000	0.000000
14.304943	12.352190	21.339112	-0.168954	0.017253	2.503480	0.000000	-0.022500	0.000000	0.000018	0.000001	0.000000	0.000000
14.745903	12.659664	21.090363	-0.530972	0.544707	2.509185	0.000000	0.048402	0.000000	0.000018	0.000002	0.000000	0.000000
15.186863	13.295858	20.385636	-0.917249	1.047377	2.546247	0.000000	0.119856	0.000000	0.000019	0.000002	0.000000	0.000000
15.627823	14.289840	19.256995	-1.345432	1.502392	2.615087	0.000000	0.192674	0.000000	0.000021	0.000003	0.000000	0.000000
16.068783	15.687022	17.755793	-1.835085	1.889049	2.716489	0.000000	0.267687	0.000000	0.000022	0.000003	0.000000	0.000000
16.514743	17.574901	15.928834	-2.413336	2.190497	2.853303	0.000000	0.346211	0.000000	0.000024	0.000004	0.000000	0.000000
17.063803	19.999752	13.888967	-1.976886	1.546631	3.019671	0.000000	0.258915	0.000000	0.000026	0.000003	0.000000	0.000000
17.612863	21.865348	12.491861	-1.400799	1.012929	3.136776	0.000000	0.167027	0.000000	0.000027	0.000002	0.000000	0.000000
18.161923	23.039914	11.638005	-0.725766	0.551375	3.202541	0.000000	0.072177	0.000000	0.000028	0.000002	0.000000	0.000000
18.710983	23.440483	11.266579	0.000531	0.129094	3.215799	0.000000	-0.023954	0.000000	0.000029	0.000001	0.000000	0.000000
19.009556	23.480546	11.180028	-0.073484	0.131357	3.211155	0.000000	-0.015553	0.000000	0.000029	0.000001	0.000000	0.000000
19.342889	23.534293	11.102567	-0.087757	0.101028	3.205970	0.000000	-0.015553	0.000000	0.000029	0.000001	0.000000	0.000000
19.676223	23.597555	11.045325	-0.102029	0.070698	3.200785	0.000000	-0.015553	0.000000	0.000030	0.000001	0.000000	0.000000
20.010806	23.670916	11.008065	-0.233635	0.094796	3.195601	0.000000	0.000280	0.000000	0.000030	0.000001	0.000000	0.000000
20.308129	23.813784	10.959798	-0.309086	0.096172	3.195684	0.000000	0.008627	0.000000	0.000030	0.000001	0.000000	0.000000
20.857189	23.742455	11.076025	0.438230	-0.309105	3.174214	0.000000	-0.086719	0.000000	0.000030	-0.000000	0.000000	0.000000
21.406249	22.862692	11.646701	1.154591	-0.736399	3.100739	0.000000	-0.180526	0.000000	0.000030	-0.000001	0.000000	0.000000
21.955309	21.236638	12.712475	1.789398	-1.216146	2.976563	0.000000	-0.271132	0.000000	0.000029	-0.000002	0.000000	0.000000
22.504369	18.979150	14.349259	2.297811	-1.782515	2.803889	0.000000	-0.356928	0.000000	0.000028	-0.000003	0.000000	0.000000
22.950329	17.199921	15.818926	1.705930	-1.499094	2.662000	0.000000	-0.279752	0.000000	0.000027	-0.000002	0.000000	0.000000
23.391289	15.924819	16.990788	1.196687	-1.148317	2.554957	0.000000	-0.206217	0.000000	0.000026	-0.000002	0.000000	0.000000
23.832249	15.073115	17.828984	0.742116	-0.745292	2.479791	0.000000	-0.135030	0.000000	0.000025	-0.000001	0.000000	0.000000
24.273209	14.605897	18.295376	0.321451	-0.308357	2.435646	0.000000	-0.065381	0.000000	0.000025	-0.000000	0.000000	0.000000
24.715418	14.501941	18.368501	-0.049060	0.097504	2.422017	0.000000	-0.002415	0.000000	0.000025	0.000000	0.000000	0.000000
25.012741	14.537225	18.315379	-0.069612	0.081164	2.421299	0.000000	-0.002415	0.000000	0.000025	0.000000	0.000000	0.000000
25.346075	14.591313	18.267376	-0.092652	0.062844	2.420494	0.000000	-0.002415	0.000000	0.000025	0.000000	0.000000	0.000000
25.679408	14.660761	18.231587	-0.115693	0.044524	2.419689	0.000000	-0.002415	0.000000	0.000025	0.000000	0.000000	0.000000
26.013991	14.745618	18.208314	-0.019194	-0.121579	2.418856	0.000000	-0.022039	0.000000	0.000025	0.000000	0.000000	0.000000
26.311314	14.763029	18.285537	-0.003171	-0.182980	2.412303	0.000000	-0.027953	0.000000	0.000025	0.000000	0.000000	0.000000
26.752274	14.947689	18.248638	-0.417184	0.266340	2.415080	0.000000	0.040561	0.000000	0.000025	0.000001	0.000000	0.000000
27.193234	15.504467	17.819324	-0.850257	0.703542	2.448142	0.000000	0.109537	0.000000	0.000026	0.000001	0.000000	0.000000
27.634194	16.458804	17.017130	-1.322176	1.108733	2.511864	0.000000	0.179760	0.000000	0.000027	0.000002	0.000000	0.000000
28.075154	17.854299	15.878555	-1.854502	1.463478	2.606974	0.000000	0.252030	0.000000	0.000028	0.000003	0.000000	0.000000
28.521114	19.778949	14.438247	-2.476529	1.752547	2.736156	0.000000	0.327615	0.000000	0.000029	0.000003	0.000000	0.000000
29.070174	22.225169	12.833577	-1.952381	1.187280	2.893384	0.000000	0.244263	0.000000	0.000031	0.000003	0.000000	0.000000
29.619234	24.016213	11.799836	-1.290326	0.706580	3.003588	0.000000	0.156579	0.000000	0.000032	0.000001	0.000000	0.000000
30.168294	25.025571	11.263392	-0.537129	0.276209	3.064815	0.000000	0.066118	0.000000	0.000032	0.000000	0.000000	0.000000
30.717354	25.181947	11.186035	0.254008	-0.134489	3.075977	0.000000	-0.025517	0.000000	0.000032	-0.000001	0.000000	0.000000
31.015927	25.073211	11.256954	0.175954	-0.132257	3.070758	0.000000	-0.017482	0.000000	0.000032	-0.000001	0.000000	0.000000
31.349260	24.960478	11.355168	0.162248	-0.162386	3.064931	0.000000	-0.017482	0.000000	0.000032	-0.000001	0.000000	0.000000
31.682593	24.856881	11.473468	0.148542	-0.192515	3.059104	0.000000	-0.017482	0.000000	0.000032	-0.000001	0.000000	0.000000
32.017177	24.762085	11.612412	0.134784	-0.222758	3.053255	0.000000	-0.017482	0.000000	0.000032	-0.000001	0.000000	0.000000
32.314499	24.685571	11.752864	0.058077	-0.218932	3.048057	0.000000	-0.009520	0.000000	0.000032	-0.000000	0.000000	0.000000
32.863559	24.198812	12.232444	0.823205	-0.659680	3.017962	0.000000	-0.099943	0.000000	0.000031	-0.000001	0.000000	0.000000
33.412619	22.898963	13.218826	1.530186	-1.147416	2.938635	0.000000	-0.188593	0.000000	0.000030	-0.000002	0.000000	0.000000
33.961679	20.877839	14.782268	2.129082	-1.716879	2.811482	0.000000	-0.273898	0.000000	0.000028	-0.000003	0.000000	0.000000
34.510739	18.278202	17.034131	2.577590	-2.408633	2.638758	0.000000	-0.354345	0.000000	0.000026	-0.000004	0.000000	0.000000
34.956699	16.256814	19.048380	1.971314	-2.089169	2.497070	0.000000	-0.281449	0.000000	0.000025	-0.000004	0.000000	0.000000
35.397659	14.749405	20.714742	1.460122	-1.675392	2.388338	0.000000	-0.212188	0.000000	0.000023	-0.000003	0.000000	0.000000
35.838619	13.661819	21.981050	1.015640	-1.185386	2.309586	0.000000	-0.145343	0.000000	0.000022	-0.000002	0.000000	0.000000
36.279579	12.944365	22.789687	0.617559	-0.641446	2.259916	0.000000	-0.080153	0.000000	0.000021	-0.000002	0.000000	0.000000
36.721789	12.563569	23.104174	0.278390	-0.125022	2.238738	0.000000	-0.021365	0.000000	0.000020	-0.000001	0.000000	0.000000
37.019112	12.405608	23.182404	0.252891	-0.138092	2.232386	0.000000	-0.021365	0.000000	0.000020	-0.000001	0.000000	0.000000
37.352445	12.246543	23.279349	0.224303	-0.152745	2.225265	0.000000	-0.021365	0.000000	0.000019	-0.000001	0.000000	0.000000
37.685779	12.106537	23.386063	0.195715	-0.167397	2.218144	0.000000	-0.021365	0.000000	0.000019	-0.000001	0.000000	0.000000
38.020362	11.985172	23.503001	0.167020	-0.182105	2.210996	0.000000	-0.021365	0.000000	0.000018	-0.000001	0.000000	0.000000
38.317684	11.893437	23.615175	0.170681	-0.253077	2.204644	0.000000	-0.026771	0.000000	0.000018	-0.000001	0.000000	0.000000
38.758644	11.894499	23.576783	-0.173100	0.339811	2.206761	0.000000	0.036381	0.000000	0.000018	-0.000001	0.000000	0.000000
39.199604	12.201076	23.020357	-0.524789	0.917238	2.236791	0.000000	0.099947	0.000000	0.000017	-0.000001	0.000000	0.000000
39.640564	12.827176	21.971215	-0.900454	1.452931	2.295074	0.000000	0.164652	0.000000	0.000017	-0.000000	0.000000	0.000000
40.081524	13.801403	20.477091	-1.317259	1.922517	2.382276	0.000000	0.231232	0.000000	0.000017	0.000000	0.000000	0.000000
40.527484	15.185844	18.583386	-1.798073	2.305918	2.500860	0.000000	0.300850	0.000000	0.000017	0.000001	0.000000	0.000000
41.076544	16.952401	16.455243	-1.400301	1.592935	2.645524	0.000000	0.225326	0.000000	0.000018	0.000000	0.000000	0.000000
41.625604	18.224924	15.043514	-0.903618	0.993414	2.747561	0.000000	0.145805	0.000000	0.000018	-0.000000	0.000000	0.000000
42.174664	18.913527	14.247646	-0.343107	0.464652	2.805161	0.000000	0.063698	0.000000	0.000017	-0.000001	0.000000	0.000000
42.723724	18.969571	14.010951	0.241638	-0.031015	2.817303	0.000000	-0.019538	0.000000	0.000017	-0.000001	0.000000	0.000000
43.022297	18.859743	14.013976	0.175761	-0.015722	2.813667	0.000000	-0.012178	0.000000	0.000016	-0.000001	0.000000	0.000000
43.502297	18.703607	14.045515	0.149523	-0.049982	2.807822	0.000000	-0.012178	0.000000	0.000016	-0.000001	0.000000	0.000000
43.982297	18.572658	14.109942	0.123286	-0.084242	2.801977	0.000000	-0.012178	0.000000	0.000015	-0.000001	0.000000	0.000000
44.462297	18.466897	14.207260	0.097049	-0.118502	2.796132	0.000000	-0.012178	0.000000	0.000014	-0.000001	0.000000	0.000000
44.942297	18.386324	14.337467	0.070812	-0.152762	2.790287	0.000000	-0.012178	0.000000	0.000014	-0.000001	0.000000	0.000000
45.423547	18.331055	14.500851	-0.046316	-0.115265	2.784444	0.000000	0.001617	0.000000	0.000013	-0.000001	0.000000	0.000000
45.720870	18.363429	14.575570	-0.110546	-0.097962	2.784926	0.000000	0.008893	0.000000	0.000012	-0.000001	0.000000	0.000000
46.269930	18.175631	14.964969	0.450555	-0.615434	2.767245	0.000000	-0.073205	0.000000	0.000012	-0.000002	0.000000	0.000000
46.818990	17.385585	15.943206	0.979832	-1.176741	2.704778	0.000000	-0.154005	0.000000	0.000011	-0.000002	0.000000	0.000000
47.368050	16.049097	17.579959	1.439897	-1.821864	2.598633	0.000000	-0.232073	0.000000	0.000009	-0.000002	0.000000	0.000000
47.917110	14.260568	19.991810	1.798256	-2.596755	2.450693	0.000000	-0.306024	0.000000	0.000008	-0.000003	0.000000	0.000000
48.363070	12.868858	22.136049	1.333507	-2.191173	2.329508	0.000000	-0.237741	0.000000	0.000007	-0.000002	0.000000	0.000000
48.804030	11.872997	23.852776	0.933452	-1.687171	2.239131	0.000000	-0.172563	0.000000	0.000006	-0.000002	0.000000	0.000000
49.244990	11.209885	25.089337	0.576044	-1.106404	2.177035	0.000000	-0.109349	0.000000	0.000005	-0.000002	0.000000	0.000000
49.685950	10.849225	25.789468	0.244954	-0.475297	2.142513	0.000000	-0.047381	0.000000	0.000004	-0.000002	0.000000	0.000000
50.128160	10.774662	25.921030	-0.048639	0.113823	2.135182	0.000000	0.008811	0.000000	0.000003	-0.000002	0.000000	0.000000
50.425482	10.811809	25.856800	-0.076299	0.102204	2.137802	0.000000	0.008811	0.000000	0.000002	-0.000002	0.000000	0.000000
50.758816	10.873012	25.793006	-0.107309	0.089178	2.140740	0.000000	0.008811	0.000000	0.000002	-0.000002	0.000000	0.000000
51.092149	10.954888	25.737897	-0.138319	0.076152	2.143678	0.000000	0.008811	0.000000	0.000001	-0.000002	0.000000	0.000000
51.426732	11.057636	25.691834	-0.079738	-0.145348	2.146605	0.000000	-0.008604	0.000000	0.000000	-0.000002	0.000000	0.000000
51.724055	11.113097	25.781778	-0.079545	-0.220391	2.144047	0.000000	-0.013862	0.000000	-0.000000	-0.000002	0.000000	0.000000
52.165015	11.328389	25.689284	-0.410541	0.429349	2.151523	0.000000	0.047797	0.000000	-0.000001	-0.000002	0.000000	0.000000
52.605975	11.842727	25.030229	-0.760292	1.059554	2.186282	0.000000	0.110000	0.000000	-0.000002	-0.000002	0.000000	0.000000
53.046935	12.679613	23.834600	-1.144780	1.641550	2.248720	0.000000	0.173456	0.000000	-0.000003	-0.000002	0.000000	0.000000
53.487895	13.877280	22.156797	-1.581569	2.148857	2.339548	0.000000	0.238888	0.000000	-0.000004	-0.000002	0.000000	0.000000
53.933855	15.510980	20.048077	-2.094838	2.559732	2.461306	0.000000	0.307439	0.000000	-0.000005	-0.000002	0.000000	0.000000
54.482915	17.614399	17.675148	-1.713431	1.787581	2.609929	0.000000	0.233132	0.000000	-0.000006	-0.000002	0.000000	0.000000
55.031975	19.229646	16.075659	-1.210996	1.142756	2.716556	0.000000	0.154691	0.000000	-0.000007	-0.000002	0.000000	0.000000
55.581035	20.242628	15.135681	-0.623022	0.579326	2.779296	0.000000	0.073505	0.000000	-0.000008	-0.000002	0.000000	0.000000
56.130095	20.581794	14.788262	0.008958	0.057161	2.797035	0.000000	-0.008984	0.000000	-0.000009	-0.000001	0.000000	0.000000
56.428668	20.612899	14.737137	-0.059358	0.075428	2.796536	0.000000	-0.001676	0.000000	-0.000009	-0.000001	0.000000	0.000000
56.762001	20.657880	14.694434	-0.075586	0.052681	2.795977	0.000000	-0.001676	0.000000	-0.000010	-0.000001	0.000000	0.000000
57.095334	20.713680	14.666896	-0.091814	0.029934	2.795419	0.000000	-0.001676	0.000000	-0.000010	-0.000001	0.000000	0.000000
57.429918	20.780569	14.654505	-0.108103	0.007101	2.794859	0.000000	-0.001676	0.000000	-0.000011	-0.000001	0.000000	0.000000
57.727240	20.849155	14.656315	-0.177058	0.025109	2.794361	0.000000	0.005626	0.000000	-0.000011	-0.000001	0.000000	0.000000
58.276300	20.687944	14.910104	0.468932	-0.490062	2.774808	0.000000	-0.076747	0.000000	-0.000012	-0.000001	0.000000	0.000000
58.825360	19.831430	15.745345	1.081799	-1.040138	2.710335	0.000000	-0.157760	0.000000	-0.000012	-0.000001	0.000000	0.000000
59.374420	18.340111	17.221530	1.618253	-1.664300	2.602084	0.000000	-0.235973	0.000000	-0.000013	-0.000000	0.000000	0.000000
59.923480	16.319328	19.443804	2.040402	-2.407008	2.451976	0.000000	-0.310002	0.000000	-0.000013	0.000000	0.000000	0.000000
60.369440	14.737735	21.418922	1.518649	-2.003209	2.329021	0.000000	-0.241708	0.000000	-0.000013	-0.000000	0.000000	0.000000
60.810400	13.600349	22.973866	1.070477	-1.509644	2.236888	0.000000	-0.176565	0.000000	-0.000013	-0.000001	0.000000	0.000000
61.251360	12.835237	24.061459	0.671211	-0.947391	2.173010	0.000000	-0.113433	0.000000	-0.000013	-0.000001	0.000000	0.000000
61.692320	12.407443	24.632215	0.302611	-0.342033	2.136660	0.000000	-0.051592	0.000000	-0.000014	-0.000001	0.000000	0.000000
62.134530	12.297478	24.659620	-0.022104	0.218353	2.127430	0.000000	0.004443	0.000000	-0.000014	-0.000002	0.000000	0.000000
62.431853	12.317814	24.533533	-0.046293	0.205721	2.128752	0.000000	0.004443	0.000000	-0.000015	-0.000002	0.000000	0.000000
62.765186	12.357716	24.401106	-0.073412	0.191559	2.130233	0.000000	0.004443	0.000000	-0.000015	-0.000002	0.000000	0.000000
63.098520	12.415698	24.278121	-0.100532	0.177397	2.131715	0.000000	0.004443	0.000000	-0.000016	-0.000002	0.000000	0.000000
63.433103	12.492078	24.164168	-0.127752	0.163182	2.133202	0.000000	0.004443	0.000000	-0.000016	-0.000002	0.000000	0.000000
63.730426	12.575237	24.070888	-0.121099	0.091512	2.134523	0.000000	-0.000792	0.000000	-0.000017	-0.000001	0.000000	0.000000
64.171386	12.842228	23.725109	-0.486676	0.689656	2.147719	0.000000	0.060695	0.000000	-0.000017	-0.000002	0.000000	0.000000
64.612346	13.440178	22.863688	-0.874488	1.256422	2.188154	0.000000	0.122873	0.000000	-0.000018	-0.000002	0.000000	0.000000
65.053306	14.396405	21.525821	-1.302253	1.766022	2.256290	0.000000	0.186451	0.000000	-0.000019	-0.000003	0.000000	0.000000
65.494266	15.754597	19.772378	-1.789514	2.195269	2.352903	0.000000	0.252152	0.000000	-0.000021	-0.000003	0.000000	0.000000
65.940226	17.599968	17.658338	-2.363223	2.525382	2.480665	0.000000	0.321127	0.000000	-0.000022	-0.000004	0.000000	0.000000
66.489286	19.965752	15.293482	-1.920063	1.807142	2.636610	0.000000	0.246075	0.000000	-0.000024	-0.000003	0.000000	0.000000
67.038346	21.767087	13.642452	-1.341280	1.217620	2.750086	0.000000	0.166657	0.000000	-0.000026	-0.000002	0.000000	0.000000
67.587406	22.876736	12.587649	-0.667756	0.714827	2.819080	0.000000	0.084284	0.000000	-0.000027	-0.000002	0.000000	0.000000
68.136466	23.216319	12.053941	0.052935	0.262949	2.842367	0.000000	0.000416	0.000000	-0.000027	-0.000001	0.000000	0.000000
68.435038	23.224780	11.886148	-0.020600	0.267534	2.844709	0.000000	0.007844	0.000000	-0.000028	-0.000001	0.000000	0.000000
68.768372	23.243300	11.717809	-0.034959	0.237483	2.847324	0.000000	0.007844	0.000000	-0.000028	-0.000001	0.000000	0.000000
69.101705	23.271391	11.569504	-0.049317	0.207432	2.849939	0.000000	0.007844	0.000000	-0.000028	-0.000001	0.000000	0.000000
69.436288	23.309215	11.440789	-0.063730	0.177268	2.852564	0.000000	0.007844	0.000000	-0.000028	-0.000001	0.000000	0.000000
69.733611	23.350919	11.343347	-0.137563	0.180109	2.854896	0.000000	0.015305	0.000000	-0.000029	-0.000001	0.000000	0.000000
70.282671	23.100925	11.372816	0.590181	-0.234097	2.840104	0.000000	-0.069107	0.000000	-0.000029	0.000000	0.000000	0.000000
