#ParticleID	Turn	x[m]	xp	y[m]	yp	z[m]	dE[GeV]# s	beta_x	beta_y	alpha_x	alpha_y	D_x	D_y	D_px	D_py	orbit_x	orbit_px	orbit_y	orbit_py
0.300000	11.829877	24.955054	-0.013078	-0.027743	2.618239	0.000000	-0.000037	0.000000	0.000000	0.000000	0.000000	0.000000
0.601250	11.845429	24.975409	-0.038547	-0.039824	2.618228	0.000000	-0.000037	0.000000	0.000000	0.000000	0.000000	0.000000
0.898573	11.875825	25.002635	-0.034562	-0.113061	2.618217	0.000000	-0.006457	0.000000	0.000000	0.000000	0.000000	0.000000
1.339533	12.058635	24.825034	-0.381585	0.514287	2.631663	0.000000	0.067502	0.000000	0.000000	0.000000	0.000000	0.000000
1.780493	12.553994	24.102407	-0.746041	1.118236	2.677861	0.000000	0.142231	0.000000	0.000001	0.000000	0.000000	0.000000
2.221453	13.384533	22.867632	-1.144583	1.671305	2.757337	0.000000	0.218579	0.000000	0.000001	0.000000	0.000000	0.000000
2.662413	14.588197	21.176891	-1.595416	2.148332	2.870996	0.000000	0.297417	0.000000	0.000001	0.000000	0.000000	0.000000
3.108373	16.240779	19.082313	-2.123439	2.528741	3.021993	0.000000	0.380132	0.000000	0.000001	0.000000	0.000000	0.000000
3.657433	18.359896	16.729896	-1.713250	1.780992	3.205436	0.000000	0.287094	0.000000	0.000001	0.000000	0.000000	0.000000
4.206493	19.959053	15.124536	-1.182046	1.160099	3.336321	0.000000	0.188965	0.000000	0.000001	0.000000	0.000000	0.000000
4.755553	20.925295	14.151887	-0.567347	0.621838	3.412326	0.000000	0.087483	0.000000	0.000001	0.000000	0.000000	0.000000
5.304613	21.190370	13.742669	0.087426	0.127868	3.432103	0.000000	-0.015551	0.000000	0.000002	0.000000	0.000000	0.000000
5.603185	21.175437	13.651533	0.017955	0.141466	3.430137	0.000000	-0.006583	0.000000	0.000002	0.000000	0.000000	0.000000
5.936519	21.168716	13.565524	0.002209	0.116560	3.427943	0.000000	-0.006583	0.000000	0.000002	0.000000	0.000000	0.000000
6.269852	21.172492	13.496119	-0.013538	0.091654	3.425748	0.000000	-0.006583	0.000000	0.000002	0.000000	0.000000	0.000000
6.604435	21.186840	13.443151	-0.029344	0.066655	3.423545	0.000000	-0.006583	0.000000	0.000002	0.000000	0.000000	0.000000
6.901758	21.208465	13.410121	-0.098802	0.079477	3.421588	0.000000	0.002357	0.000000	0.000002	0.000000	0.000000	0.000000
7.450818	20.955433	13.583361	0.556919	-0.396862	3.394682	0.000000	-0.100221	0.000000	0.000002	0.000000	0.000000	0.000000
7.999878	19.999781	14.292040	1.173302	-0.901469	3.311860	0.000000	-0.201020	0.000000	0.000002	0.000000	0.000000	0.000000
8.548938	18.409010	15.586635	1.706809	-1.470286	3.174592	0.000000	-0.298254	0.000000	0.000002	0.000000	0.000000	0.000000
9.097998	16.295486	17.559356	2.119755	-2.143828	2.985313	0.000000	-0.390198	0.000000	0.000002	-0.000000	0.000000	0.000000
9.543958	14.646430	19.317214	1.591158	-1.781251	2.829606	0.000000	-0.308496	0.000000	0.000002	-0.000000	0.000000	0.000000
9.984918	13.446846	20.698313	1.139554	-1.338858	2.710817	0.000000	-0.230791	0.000000	0.000002	0.000000	0.000000	0.000000
10.425878	12.621165	21.660802	0.740013	-0.835548	2.625681	0.000000	-0.155715	0.000000	0.000002	0.000000	0.000000	0.000000
10.866838	12.131663	22.160887	0.374281	-0.294221	2.573229	0.000000	-0.082412	0.000000	0.000002	0.000000	0.000000	0.000000
11.309048	11.955840	22.175301	0.054862	0.206054	2.552842	0.000000	-0.016308	0.000000	0.000002	0.000000	0.000000	0.000000
11.606371	11.930632	22.056928	0.029919	0.192077	2.547993	0.000000	-0.016308	0.000000	0.000002	0.000000	0.000000	0.000000
12.086371	11.921239	21.883365	-0.010349	0.169512	2.540165	0.000000	-0.016308	0.000000	0.000002	0.000000	0.000000	0.000000
12.566371	11.950503	21.731464	-0.050618	0.146947	2.532337	0.000000	-0.016308	0.000000	0.000002	0.000000	0.000000	0.000000
13.046371	12.018425	21.601226	-0.090887	0.124383	2.524509	0.000000	-0.016308	0.000000	0.000003	0.000000	0.000000	0.000000
13.526371	12.125005	21.492650	-0.131155	0.101818	2.516681	0.000000	-0.016308	0.000000	0.000003	0.000000	0.000000	0.000000
14.007621	12.270672	21.405537	-0.171529	0.079194	2.508833	0.000000	-0.016308	0.000000	0.000003	0.000000	0.000000	0.000000
14.304943	12.380087	21.362601	-0.166113	0.012831	2.503984	0.000000	-0.022449	0.000000	0.000003	0.000000	0.000000	0.000000
14.745903	12.685302	21.117444	-0.528674	0.541014	2.509715	0.000000	0.048467	0.000000	0.000003	0.000000	0.000000	0.000000
15.186863	13.319669	20.415589	-0.915388	1.044581	2.546808	0.000000	0.119934	0.000000	0.000003	0.000000	0.000000	0.000000
15.627823	14.312171	19.288969	-1.343924	1.500621	2.615687	0.000000	0.192767	0.000000	0.000003	0.000000	0.000000	0.000000
16.068783	15.708151	17.788845	-1.833860	1.888383	2.717135	0.000000	0.267796	0.000000	0.000003	0.000001	0.000000	0.000000
16.514743	17.595042	15.961970	-2.412338	2.190975	2.854003	0.000000	0.346337	0.000000	0.000004	0.000001	0.000000	0.000000
17.063803	20.018238	13.921973	-1.974890	1.546392	3.020436	0.000000	0.259018	0.000000	0.000004	0.000000	0.000000	0.000000
17.612863	21.881156	12.525529	-1.397946	1.011956	3.137592	0.000000	0.167105	0.000000	0.000004	0.000000	0.000000	0.000000
18.161923	23.052208	11.673173	-0.722258	0.549598	3.203393	0.000000	0.072228	0.000000	0.000004	0.000000	0.000000	0.000000
18.710983	23.448676	11.304194	0.004446	0.126388	3.216671	0.000000	-0.023931	0.000000	0.000004	0.000000	0.000000	0.000000
19.009556	23.486419	11.219163	-0.069592	0.128868	3.212035	0.000000	-0.015527	0.000000	0.000004	0.000000	0.000000	0.000000
19.342889	23.537568	11.143320	-0.083854	0.098663	3.206860	0.000000	-0.015527	0.000000	0.000004	0.000000	0.000000	0.000000
19.676223	23.598224	11.087612	-0.098115	0.068459	3.201684	0.000000	-0.015527	0.000000	0.000005	0.000000	0.000000	0.000000
20.010806	23.668962	11.051809	-0.229699	0.092899	3.196509	0.000000	0.000311	0.000000	0.000005	0.000000	0.000000	0.000000
20.308129	23.809484	11.004635	-0.305131	0.094516	3.196601	0.000000	0.008663	0.000000	0.000005	0.000000	0.000000	0.000000
20.857189	23.733910	11.123378	0.441958	-0.312059	3.175142	0.000000	-0.086713	0.000000	0.000005	-0.000000	0.000000	0.000000
21.406249	22.850300	11.698101	1.157829	-0.740861	3.101662	0.000000	-0.180551	0.000000	0.000005	-0.000000	0.000000	0.000000
21.955309	21.221067	12.769741	1.791918	-1.222432	2.977465	0.000000	-0.271186	0.000000	0.000004	-0.000000	0.000000	0.000000
22.504369	18.961293	14.414628	2.299433	-1.791075	2.804752	0.000000	-0.357011	0.000000	0.000004	-0.000000	0.000000	0.000000
22.950329	17.180540	15.891275	1.707742	-1.506121	2.662830	0.000000	-0.279813	0.000000	0.000004	-0.000000	0.000000	0.000000
23.391289	15.903728	17.068541	1.198770	-1.153497	2.555764	0.000000	-0.206256	0.000000	0.000004	-0.000000	0.000000	0.000000
23.832249	15.050033	17.910401	0.744566	-0.748391	2.480584	0.000000	-0.135049	0.000000	0.000004	-0.000000	0.000000	0.000000
24.273209	14.580451	18.378552	0.324380	-0.309233	2.436436	0.000000	-0.065380	0.000000	0.000004	-0.000000	0.000000	0.000000
24.715418	14.473644	18.451446	-0.045581	0.098679	2.422812	0.000000	-0.002397	0.000000	0.000004	0.000000	0.000000	0.000000
25.012741	14.506869	18.397605	-0.066166	0.082409	2.422100	0.000000	-0.002397	0.000000	0.000004	0.000000	0.000000	0.000000
25.346075	14.558673	18.348746	-0.089244	0.064167	2.421301	0.000000	-0.002397	0.000000	0.000004	0.000000	0.000000	0.000000
25.679408	14.625862	18.312048	-0.112323	0.045926	2.420502	0.000000	-0.002397	0.000000	0.000004	0.000000	0.000000	0.000000
26.013991	14.708476	18.287813	-0.016163	-0.120743	2.419675	0.000000	-0.022027	0.000000	0.000004	-0.000000	0.000000	0.000000
26.311314	14.724099	18.364517	-0.000276	-0.182272	2.413126	0.000000	-0.027944	0.000000	0.000004	-0.000000	0.000000	0.000000
26.752274	14.905776	18.326050	-0.413290	0.269174	2.415912	0.000000	0.040591	0.000000	0.000004	0.000000	0.000000	0.000000
27.193234	15.458615	17.893345	-0.845186	0.708373	2.448992	0.000000	0.109588	0.000000	0.000004	0.000000	0.000000	0.000000
27.634194	16.407877	17.086088	-1.315696	1.115341	2.512743	0.000000	0.179834	0.000000	0.000004	0.000000	0.000000	0.000000
28.075154	17.796928	15.941009	-1.846316	1.471562	2.607891	0.000000	0.252128	0.000000	0.000004	0.000000	0.000000	0.000000
28.521114	19.713370	14.492964	-2.466246	1.761742	2.737123	0.000000	0.327736	0.000000	0.000004	0.000000	0.000000	0.000000
29.070174	22.149175	12.879405	-1.943810	1.194371	2.894410	0.000000	0.244352	0.000000	0.000004	0.000000	0.000000	0.000000
29.619234	23.932030	11.838796	-1.284073	0.712072	3.004655	0.000000	0.156634	0.000000	0.000005	0.000000	0.000000	0.000000
30.168294	24.936005	11.297017	-0.533636	0.280492	3.065903	0.000000	0.066138	0.000000	0.000005	0.000000	0.000000	0.000000
30.717354	25.090183	11.215478	0.254495	-0.131109	3.077067	0.000000	-0.025531	0.000000	0.000005	-0.000000	0.000000	0.000000
31.015927	24.981037	11.284302	0.176617	-0.128704	3.071845	0.000000	-0.017492	0.000000	0.000005	-0.000000	0.000000	0.000000
31.349260	24.867879	11.380115	0.162857	-0.158733	3.066014	0.000000	-0.017492	0.000000	0.000005	-0.000000	0.000000	0.000000
31.682593	24.763895	11.495946	0.149097	-0.188762	3.060184	0.000000	-0.017492	0.000000	0.000005	-0.000000	0.000000	0.000000
32.017177	24.668745	11.632344	0.135286	-0.218903	3.054331	0.000000	-0.017492	0.000000	0.000005	-0.000000	0.000000	0.000000
32.314499	24.591947	11.770478	0.058761	-0.214935	3.049130	0.000000	-0.009525	0.000000	0.000005	-0.000000	0.000000	0.000000
32.863559	24.106147	12.245845	0.820785	-0.655959	3.019023	0.000000	-0.099983	0.000000	0.000004	-0.000000	0.000000	0.000000
33.412619	22.810592	13.228171	1.524834	-1.143706	2.939664	0.000000	-0.188666	0.000000	0.000004	-0.000000	0.000000	0.000000
33.961679	20.796794	14.787424	2.121175	-1.712916	2.812460	0.000000	-0.274004	0.000000	0.000004	-0.000001	0.000000	0.000000
34.510739	18.206996	17.034667	2.567687	-2.404134	2.639668	0.000000	-0.354481	0.000000	0.000004	-0.000001	0.000000	0.000000
34.956699	16.193452	19.044675	1.963567	-2.084193	2.497922	0.000000	-0.281563	0.000000	0.000003	-0.000001	0.000000	0.000000
35.397659	14.692067	20.706523	1.454160	-1.670172	2.389144	0.000000	-0.212280	0.000000	0.000003	-0.000000	0.000000	0.000000
35.838619	13.609054	21.968206	1.011190	-1.180159	2.310354	0.000000	-0.145415	0.000000	0.000003	-0.000000	0.000000	0.000000
36.279579	12.894936	22.772317	0.614417	-0.636449	2.260657	0.000000	-0.080206	0.000000	0.000003	-0.000000	0.000000	0.000000
36.721789	12.516394	23.082572	0.276303	-0.120440	2.239459	0.000000	-0.021402	0.000000	0.000003	-0.000000	0.000000	0.000000
37.019112	12.359693	23.158077	0.250735	-0.133508	2.233095	0.000000	-0.021402	0.000000	0.000003	-0.000000	0.000000	0.000000
37.352445	12.202092	23.251965	0.222070	-0.148158	2.225961	0.000000	-0.021402	0.000000	0.000003	-0.000000	0.000000	0.000000
37.685779	12.063600	23.355621	0.193405	-0.162809	2.218828	0.000000	-0.021402	0.000000	0.000003	-0.000000	0.000000	0.000000
38.020362	11.943806	23.469487	0.164633	-0.177514	2.211667	0.000000	-0.021402	0.000000	0.000003	-0.000000	0.000000	0.000000
38.317684	11.853510	23.578930	0.168132	-0.248403	2.205304	0.000000	-0.026810	0.000000	0.000002	-0.000000	0.000000	0.000000
38.758644	11.856424	23.536853	-0.174765	0.343461	2.207407	0.000000	0.036359	0.000000	0.000002	-0.000000	0.000000	0.000000
39.199604	12.164111	22.977724	-0.525648	0.919697	2.237430	0.000000	0.099942	0.000000	0.000002	-0.000000	0.000000	0.000000
39.640564	12.790628	21.926981	-0.900546	1.454088	2.295715	0.000000	0.164663	0.000000	0.000002	-0.000000	0.000000	0.000000
40.081524	13.764600	20.432434	-1.316587	1.922318	2.382925	0.000000	0.231259	0.000000	0.000002	0.000000	0.000000	0.000000
40.527484	15.148088	18.539515	-1.796603	2.304364	2.501525	0.000000	0.300895	0.000000	0.000002	0.000000	0.000000	0.000000
41.076544	16.913819	16.412445	-1.400277	1.592525	2.646208	0.000000	0.225349	0.000000	0.000002	0.000000	0.000000	0.000000
41.625604	18.187115	15.000556	-0.905043	0.994118	2.748251	0.000000	0.145806	0.000000	0.000002	-0.000000	0.000000	0.000000
42.174664	18.878037	14.203284	-0.345881	0.466520	2.805845	0.000000	0.063677	0.000000	0.000002	-0.000000	0.000000	0.000000
42.723724	18.937781	13.963840	0.237713	-0.027848	2.817968	0.000000	-0.019582	0.000000	0.000002	-0.000000	0.000000	0.000000
43.022297	18.830253	13.965068	0.171908	-0.012748	2.814320	0.000000	-0.012220	0.000000	0.000002	-0.000000	0.000000	0.000000
43.502297	18.677818	13.993807	0.145664	-0.047125	2.808455	0.000000	-0.012220	0.000000	0.000002	-0.000000	0.000000	0.000000
43.982297	18.550578	14.055547	0.119420	-0.081502	2.802589	0.000000	-0.012220	0.000000	0.000002	-0.000000	0.000000	0.000000
44.462297	18.448532	14.150290	0.093176	-0.115879	2.796724	0.000000	-0.012220	0.000000	0.000002	-0.000000	0.000000	0.000000
44.942297	18.371681	14.278034	0.066931	-0.150256	2.790859	0.000000	-0.012220	0.000000	0.000002	-0.000000	0.000000	0.000000
45.423547	18.320150	14.439064	-0.050149	-0.113182	2.784995	0.000000	0.001579	0.000000	0.000002	-0.000000	0.000000	0.000000
45.720870	18.354808	14.512568	-0.114377	-0.096120	2.785465	0.000000	0.008857	0.000000	0.000002	-0.000000	0.000000	0.000000
46.269930	18.171342	14.898881	0.446545	-0.611623	2.767759	0.000000	-0.073258	0.000000	0.000001	-0.000000	0.000000	0.000000
46.818990	17.385670	15.871735	0.975924	-1.170691	2.705257	0.000000	-0.154074	0.000000	0.000001	-0.000000	0.000000	0.000000
47.368050	16.053289	17.500426	1.436369	-1.813144	2.599069	0.000000	-0.232157	0.000000	0.000001	-0.000000	0.000000	0.000000
47.917110	14.268311	19.900961	1.795356	-2.584744	2.451078	0.000000	-0.306122	0.000000	0.000001	-0.000000	0.000000	0.000000
48.363070	12.879119	22.035349	1.330738	-2.181187	2.329851	0.000000	-0.237829	0.000000	0.000001	-0.000000	0.000000	0.000000
48.804030	11.885691	23.744331	0.930684	-1.679658	2.239436	0.000000	-0.172642	0.000000	0.000001	-0.000000	0.000000	0.000000
49.244990	11.225066	24.975485	0.573151	-1.101705	2.177306	0.000000	-0.109422	0.000000	0.000000	-0.000000	0.000000	0.000000
49.685950	10.867062	25.672796	0.241803	-0.473625	2.142752	0.000000	-0.047447	0.000000	0.000000	-0.000000	0.000000	0.000000
50.128160	10.795453	25.804255	-0.052140	0.112675	2.135393	0.000000	0.008750	0.000000	0.000000	-0.000000	0.000000	0.000000
50.425482	10.834669	25.740723	-0.079756	0.101006	2.137995	0.000000	0.008750	0.000000	0.000000	-0.000000	0.000000	0.000000
50.758816	10.898160	25.677746	-0.110717	0.087925	2.140912	0.000000	0.008750	0.000000	-0.000000	-0.000000	0.000000	0.000000
51.092149	10.982292	25.623490	-0.141679	0.074843	2.143829	0.000000	0.008750	0.000000	-0.000000	-0.000000	0.000000	0.000000
51.426732	11.087272	25.578320	-0.082809	-0.145792	2.146735	0.000000	-0.008665	0.000000	-0.000000	-0.000000	0.000000	0.000000
51.724055	11.144541	25.668544	-0.082479	-0.220610	2.144158	0.000000	-0.013924	0.000000	-0.000000	-0.000000	0.000000	0.000000
52.165015	11.362758	25.577565	-0.414265	0.426145	2.151607	0.000000	0.047738	0.000000	-0.000000	-0.000000	0.000000	0.000000
52.605975	11.880791	24.922604	-0.764977	1.053511	2.186339	0.000000	0.109943	0.000000	-0.000001	-0.000000	0.000000	0.000000
53.046935	12.722308	23.733460	-1.150638	1.632943	2.248751	0.000000	0.173400	0.000000	-0.000001	-0.000000	0.000000	0.000000
53.487895	13.925756	22.064239	-1.588870	2.138077	2.339554	0.000000	0.238832	0.000000	-0.000001	-0.000000	0.000000	0.000000
53.933855	15.566741	19.965930	-2.103929	2.547264	2.461286	0.000000	0.307383	0.000000	-0.000001	-0.000000	0.000000	0.000000
54.482915	17.679403	17.604894	-1.721074	1.778260	2.609877	0.000000	0.233077	0.000000	-0.000001	-0.000000	0.000000	0.000000
55.031975	19.301994	16.014225	-1.216650	1.135917	2.716474	0.000000	0.154638	0.000000	-0.000001	-0.000000	0.000000	0.000000
55.581035	20.319904	15.080623	-0.626289	0.574483	2.779185	0.000000	0.073455	0.000000	-0.000002	-0.000000	0.000000	0.000000
56.130095	20.661231	14.737590	0.008311	0.053969	2.796897	0.000000	-0.009030	0.000000	-0.000002	-0.000000	0.000000	0.000000
56.428668	20.692829	14.688469	-0.060155	0.072043	2.796383	0.000000	-0.001722	0.000000	-0.000002	-0.000000	0.000000	0.000000
56.762001	20.738321	14.648044	-0.076322	0.049232	2.795809	0.000000	-0.001722	0.000000	-0.000002	-0.000000	0.000000	0.000000
57.095334	20.794591	14.622827	-0.092489	0.026421	2.795235	0.000000	-0.001722	0.000000	-0.000002	-0.000000	0.000000	0.000000
57.429918	20.861911	14.612808	-0.108716	0.003524	2.794659	0.000000	-0.001722	0.000000	-0.000002	-0.000000	0.000000	0.000000
57.727240	20.930846	14.616762	-0.177826	0.021368	2.794147	0.000000	0.005578	0.000000	-0.000002	-0.000000	0.000000	0.000000
58.276300	20.768972	14.874055	0.470901	-0.492741	2.774569	0.000000	-0.076788	0.000000	-0.000002	-0.000000	0.000000	0.000000
58.825360	19.908848	15.711746	1.086365	-1.041947	2.710075	0.000000	-0.157792	0.000000	-0.000002	-0.000000	0.000000	0.000000
59.374420	18.411229	17.189501	1.625094	-1.665368	2.601809	0.000000	-0.235997	0.000000	-0.000002	-0.000000	0.000000	0.000000
59.923480	16.381899	19.412579	2.049035	-2.407410	2.451691	0.000000	-0.310016	0.000000	-0.000002	0.000000	0.000000	0.000000
60.369440	14.793460	21.388544	1.525420	-2.004702	2.328727	0.000000	-0.241730	0.000000	-0.000002	0.000000	0.000000	0.000000
60.810400	13.650800	22.945259	1.075710	-1.512151	2.236582	0.000000	-0.176595	0.000000	-0.000002	-0.000000	0.000000	0.000000
61.251360	12.881661	24.035470	0.675145	-0.950799	2.172689	0.000000	-0.113470	0.000000	-0.000002	-0.000000	0.000000	0.000000
61.692320	12.450902	24.609573	0.305426	-0.346186	2.136321	0.000000	-0.051638	0.000000	-0.000002	-0.000000	0.000000	0.000000
62.134530	12.338894	24.640913	-0.020181	0.213696	2.127068	0.000000	0.004389	0.000000	-0.000002	-0.000000	0.000000	0.000000
62.431853	12.358062	24.517591	-0.044287	0.201078	2.128373	0.000000	0.004389	0.000000	-0.000002	-0.000000	0.000000	0.000000
62.765186	12.396595	24.388254	-0.071313	0.186933	2.129836	0.000000	0.004389	0.000000	-0.000002	-0.000000	0.000000	0.000000
63.098520	12.453145	24.268347	-0.098338	0.172788	2.131299	0.000000	0.004389	0.000000	-0.000003	-0.000000	0.000000	0.000000
63.433103	12.528026	24.157474	-0.125466	0.158589	2.132768	0.000000	0.004389	0.000000	-0.000003	-0.000000	0.000000	0.000000
63.730426	12.609801	24.066921	-0.118648	0.086951	2.134073	0.000000	-0.000844	0.000000	-0.000003	-0.000000	0.000000	0.000000
64.171386	12.874957	23.725172	-0.484949	0.685110	2.147242	0.000000	0.060631	0.000000	-0.000003	-0.000000	0.000000	0.000000
64.612346	13.471674	22.867679	-0.873406	1.252096	2.187646	0.000000	0.122796	0.000000	-0.000003	-0.000000	0.000000	0.000000
65.053306	14.427213	21.533457	-1.301767	1.762113	2.255744	0.000000	0.186360	0.000000	-0.000003	-0.000000	0.000000	0.000000
65.494266	15.785230	19.783211	-1.789601	2.191955	2.352312	0.000000	0.252047	0.000000	-0.000003	-0.000001	0.000000	0.000000
65.940226	17.630939	17.671799	-2.363891	2.522823	2.480023	0.000000	0.321006	0.000000	-0.000004	-0.000001	0.000000	0.000000
66.489286	19.996759	15.309709	-1.919458	1.804635	2.635906	0.000000	0.245975	0.000000	-0.000004	-0.000000	0.000000	0.000000
67.038346	21.796746	13.661484	-1.339444	1.214987	2.749333	0.000000	0.166582	0.000000	-0.000004	-0.000000	0.000000	0.000000
67.587406	22.903759	12.609726	-0.664818	0.711880	2.818291	0.000000	0.084233	0.000000	-0.000004	-0.000000	0.000000	0.000000
68.136466	23.239604	12.079521	0.056767	0.259479	2.841557	0.000000	0.000391	0.000000	-0.000004	-0.000000	0.000000	0.000000
68.435038	23.245802	11.913732	-0.016804	0.264231	2.843890	0.000000	0.007816	0.000000	-0.000004	-0.000000	0.000000	0.000000
68.768372	23.261786	11.747555	-0.031147	0.234299	2.846496	0.000000	0.007816	0.000000	-0.000004	-0.000000	0.000000	0.000000
69.101705	23.287332	11.601334	-0.045491	0.204366	2.849101	0.000000	0.007816	0.000000	-0.000004	-0.000000	0.000000	0.000000
69.436288	23.322590	11.474631	-0.059888	0.174322	2.851716	0.000000	0.007816	0.000000	-0.000004	-0.000000	0.000000	0.000000
69.733611	23.362006	11.378910	-0.133725	0.177355	2.854040	0.000000	0.015273	0.000000	-0.000004	-0.000000	0.000000	0.000000
70.282671	23.107632	11.411959	0.594274	-0.237903	2.839238	0.000000	-0.069111	0.000000	-0.000004	0.000000	0.000000	0.000000
