#ParticleID	Turn	x[m]	xp	y[m]	yp	z[m]	dE[GeV]# s	beta_x	beta_y	alpha_x	alpha_y	D_x	D_y	D_px	D_py	orbit_x	orbit_px	orbit_y	orbit_py
0.300000	11.804312	25.056155	-0.010111	-0.026829	2.618255	0.000000	-0.000041	0.000000	-0.000002	0.000002	0.000000	0.000000
0.601250	11.818092	25.075944	-0.035634	-0.038860	2.618242	0.000000	-0.000041	0.000000	-0.000001	0.000002	0.000000	0.000000
0.898573	11.846771	25.102582	-0.031772	-0.112294	2.618230	0.000000	-0.006462	0.000000	-0.000001	0.000002	0.000000	0.000000
1.339533	12.026808	24.923141	-0.378061	0.517679	2.631673	0.000000	0.067498	0.000000	0.000000	0.000002	0.000000	0.000000
1.780493	12.518678	24.196418	-0.741622	1.124098	2.677869	0.000000	0.142227	0.000000	0.000001	0.000002	0.000000	0.000000
2.221453	13.344852	22.955478	-1.139066	1.679371	2.757342	0.000000	0.218575	0.000000	0.000002	0.000002	0.000000	0.000000
2.662413	14.543077	21.256784	-1.588551	2.158234	2.870998	0.000000	0.297413	0.000000	0.000003	0.000002	0.000000	0.000000
3.108373	16.188813	19.152715	-2.114897	2.540033	3.021993	0.000000	0.380128	0.000000	0.000003	0.000002	0.000000	0.000000
3.657433	18.299234	16.789480	-1.706048	1.789520	3.205434	0.000000	0.287091	0.000000	0.000004	0.000002	0.000000	0.000000
4.206493	19.891457	15.175987	-1.176693	1.166471	3.336316	0.000000	0.188961	0.000000	0.000005	0.000002	0.000000	0.000000
4.755553	20.853016	14.197311	-0.564222	0.626508	3.412319	0.000000	0.087479	0.000000	0.000006	0.000001	0.000000	0.000000
5.304613	21.115991	13.783742	0.088103	0.131169	3.432093	0.000000	-0.015554	0.000000	0.000007	0.000001	0.000000	0.000000
5.603185	21.100551	13.690559	0.018780	0.144914	3.430126	0.000000	-0.006587	0.000000	0.000007	0.000001	0.000000	0.000000
5.936519	21.093299	13.602236	0.002977	0.120055	3.427930	0.000000	-0.006587	0.000000	0.000008	0.000001	0.000000	0.000000
6.269852	21.096582	13.530486	-0.012826	0.095196	3.425734	0.000000	-0.006587	0.000000	0.000008	0.000001	0.000000	0.000000
6.604435	21.110472	13.475133	-0.028689	0.070244	3.423529	0.000000	-0.006587	0.000000	0.000009	0.000001	0.000000	0.000000
6.901758	21.131723	13.439955	-0.097993	0.083184	3.421571	0.000000	0.002352	0.000000	0.000009	0.000001	0.000000	0.000000
7.450818	20.879219	13.609572	0.555156	-0.393929	3.394662	0.000000	-0.100224	0.000000	0.000010	0.000001	0.000000	0.000000
7.999878	19.926866	14.315357	1.169092	-0.899101	3.311838	0.000000	-0.201023	0.000000	0.000010	0.000001	0.000000	0.000000
8.548938	18.341934	15.607582	1.700449	-1.468314	3.174568	0.000000	-0.298256	0.000000	0.000010	0.000000	0.000000	0.000000
9.097998	16.236374	17.578291	2.111695	-2.142112	2.985288	0.000000	-0.390199	0.000000	0.000011	0.000000	0.000000	0.000000
9.543958	14.593703	19.334260	1.584849	-1.778748	2.829580	0.000000	-0.308498	0.000000	0.000011	0.000000	0.000000	0.000000
9.984918	13.399026	20.712848	1.134695	-1.335688	2.710790	0.000000	-0.230794	0.000000	0.000011	0.000001	0.000000	0.000000
10.425878	12.577074	21.672299	0.736381	-0.831856	2.625653	0.000000	-0.155718	0.000000	0.000011	0.000001	0.000000	0.000000
10.866838	12.090297	22.168960	0.371711	-0.290175	2.573198	0.000000	-0.082416	0.000000	0.000011	0.000001	0.000000	0.000000
11.309048	11.916321	22.179706	0.053137	0.210264	2.552809	0.000000	-0.016313	0.000000	0.000012	0.000001	0.000000	0.000000
11.606371	11.892163	22.058836	0.028115	0.196266	2.547959	0.000000	-0.016313	0.000000	0.000012	0.000001	0.000000	0.000000
12.086371	11.884562	21.881268	-0.012279	0.173668	2.540128	0.000000	-0.016313	0.000000	0.000013	0.000001	0.000000	0.000000
12.566371	11.915739	21.725394	-0.052674	0.151069	2.532297	0.000000	-0.016313	0.000000	0.000014	0.000001	0.000000	0.000000
13.046371	11.985696	21.591214	-0.093068	0.128471	2.524467	0.000000	-0.016313	0.000000	0.000014	0.000001	0.000000	0.000000
13.526371	12.094431	21.478729	-0.133463	0.105873	2.516636	0.000000	-0.016313	0.000000	0.000015	0.000001	0.000000	0.000000
14.007621	12.242379	21.387730	-0.173963	0.083216	2.508785	0.000000	-0.016313	0.000000	0.000016	0.000001	0.000000	0.000000
14.304943	12.353265	21.342408	-0.168695	0.016889	2.503934	0.000000	-0.022452	0.000000	0.000016	0.000001	0.000000	0.000000
14.745903	12.660518	21.093939	-0.530729	0.544439	2.509663	0.000000	0.048462	0.000000	0.000017	0.000002	0.000000	0.000000
15.186863	13.296500	20.389401	-0.917010	1.047217	2.546753	0.000000	0.119928	0.000000	0.000018	0.000002	0.000000	0.000000
15.627823	14.290269	19.260851	-1.345187	1.502348	2.615628	0.000000	0.192760	0.000000	0.000019	0.000003	0.000000	0.000000
16.068783	15.687227	17.759634	-1.834822	1.889123	2.717072	0.000000	0.267787	0.000000	0.000020	0.000003	0.000000	0.000000
16.514743	17.574859	15.932558	-2.413042	2.190686	2.853934	0.000000	0.346327	0.000000	0.000022	0.000004	0.000000	0.000000
17.063803	19.999368	13.892537	-1.976561	1.546724	3.020360	0.000000	0.259010	0.000000	0.000024	0.000003	0.000000	0.000000
17.612863	21.864602	12.495378	-1.400465	1.012932	3.137511	0.000000	0.167099	0.000000	0.000025	0.000002	0.000000	0.000000
18.161923	23.038807	11.641567	-0.725448	0.551288	3.203309	0.000000	0.072224	0.000000	0.000026	0.000001	0.000000	0.000000
18.710983	23.439046	11.270288	0.000812	0.128912	3.216586	0.000000	-0.023931	0.000000	0.000027	0.000001	0.000000	0.000000
19.009556	23.478940	11.183837	-0.073201	0.131196	3.211949	0.000000	-0.015529	0.000000	0.000027	0.000001	0.000000	0.000000
19.342889	23.532498	11.106479	-0.087474	0.100878	3.206772	0.000000	-0.015529	0.000000	0.000027	0.000001	0.000000	0.000000
19.676223	23.595572	11.049333	-0.101747	0.070560	3.201596	0.000000	-0.015529	0.000000	0.000027	0.000001	0.000000	0.000000
20.010806	23.668745	11.012162	-0.233342	0.094689	3.196420	0.000000	0.000308	0.000000	0.000027	0.000001	0.000000	0.000000
20.308129	23.811439	10.963955	-0.308788	0.096088	3.196511	0.000000	0.008658	0.000000	0.000028	0.000001	0.000000	0.000000
20.857189	23.739826	11.080338	0.438444	-0.309308	3.175050	0.000000	-0.086715	0.000000	0.000028	-0.000000	0.000000	0.000000
21.406249	22.859882	11.651308	1.154706	-0.736735	3.101570	0.000000	-0.180549	0.000000	0.000028	-0.000001	0.000000	0.000000
21.955309	21.233760	12.717533	1.789406	-1.216638	2.977374	0.000000	-0.271182	0.000000	0.000027	-0.000002	0.000000	0.000000
22.504369	18.976323	14.354959	2.297711	-1.783199	2.804666	0.000000	-0.357004	0.000000	0.000026	-0.000003	0.000000	0.000000
22.950329	17.197155	15.825176	1.705891	-1.499639	2.662748	0.000000	-0.279808	0.000000	0.000024	-0.000002	0.000000	0.000000
23.391289	15.922063	16.997448	1.196706	-1.148698	2.555683	0.000000	-0.206254	0.000000	0.000024	-0.000001	0.000000	0.000000
23.832249	15.070316	17.835902	0.742194	-0.745493	2.480505	0.000000	-0.135048	0.000000	0.000023	-0.000001	0.000000	0.000000
24.273209	14.603002	18.302388	0.321592	-0.308368	2.436356	0.000000	-0.065381	0.000000	0.000023	-0.000000	0.000000	0.000000
24.715418	14.498891	18.375437	-0.048857	0.097666	2.422732	0.000000	-0.002399	0.000000	0.000023	0.000000	0.000000	0.000000
25.012741	14.534055	18.322217	-0.069413	0.081331	2.422019	0.000000	-0.002399	0.000000	0.000023	0.000000	0.000000	0.000000
25.346075	14.588012	18.274101	-0.092458	0.063018	2.421219	0.000000	-0.002399	0.000000	0.000023	0.000000	0.000000	0.000000
25.679408	14.657332	18.238194	-0.115503	0.044704	2.420419	0.000000	-0.002399	0.000000	0.000023	0.000000	0.000000	0.000000
26.013991	14.742063	18.214799	-0.019037	-0.121445	2.419592	0.000000	-0.022028	0.000000	0.000023	0.000000	0.000000	0.000000
26.311314	14.759382	18.291940	-0.003026	-0.182856	2.413042	0.000000	-0.027944	0.000000	0.000023	0.000000	0.000000	0.000000
26.752274	14.943875	18.254855	-0.416949	0.266636	2.415827	0.000000	0.040589	0.000000	0.000024	0.000001	0.000000	0.000000
27.193234	15.500403	17.825211	-0.849921	0.703995	2.448906	0.000000	0.109584	0.000000	0.000024	0.000001	0.000000	0.000000
27.634194	16.454392	17.022555	-1.321723	1.109324	2.512654	0.000000	0.179827	0.000000	0.000025	0.000002	0.000000	0.000000
28.075154	17.849429	15.883408	-1.853911	1.464179	2.607798	0.000000	0.252119	0.000000	0.000026	0.000003	0.000000	0.000000
28.521114	19.773479	14.442437	-2.475772	1.753327	2.737024	0.000000	0.327725	0.000000	0.000027	0.000003	0.000000	0.000000
29.070174	22.218948	12.837007	-1.951777	1.187891	2.894304	0.000000	0.244344	0.000000	0.000029	0.000002	0.000000	0.000000
29.619234	24.009433	11.802667	-1.289918	0.707067	3.004545	0.000000	0.156630	0.000000	0.000030	0.000001	0.000000	0.000000
30.168294	25.018464	11.265741	-0.536945	0.276605	3.065791	0.000000	0.066137	0.000000	0.000030	0.000000	0.000000	0.000000
30.717354	25.174768	11.187987	0.253955	-0.134155	3.076955	0.000000	-0.025529	0.000000	0.000030	-0.000001	0.000000	0.000000
31.015927	25.066056	11.258701	0.175914	-0.131911	3.071733	0.000000	-0.017491	0.000000	0.000030	-0.000000	0.000000	0.000000
31.349260	24.953349	11.356682	0.162205	-0.162033	3.065903	0.000000	-0.017491	0.000000	0.000030	-0.000000	0.000000	0.000000
31.682593	24.849783	11.474745	0.148495	-0.192155	3.060073	0.000000	-0.017491	0.000000	0.000030	-0.000000	0.000000	0.000000
32.017177	24.755019	11.613445	0.134734	-0.222390	3.054220	0.000000	-0.017491	0.000000	0.000029	-0.000000	0.000000	0.000000
32.314499	24.678537	11.753676	0.058040	-0.218555	3.049020	0.000000	-0.009527	0.000000	0.000029	-0.000000	0.000000	0.000000
32.863559	24.191945	12.232845	0.822939	-0.659305	3.018913	0.000000	-0.099981	0.000000	0.000029	-0.000001	0.000000	0.000000
33.412619	22.892507	13.218804	1.529709	-1.147016	2.939556	0.000000	-0.188661	0.000000	0.000028	-0.000002	0.000000	0.000000
33.961679	20.872009	14.781780	2.128427	-1.716426	2.812358	0.000000	-0.273995	0.000000	0.000026	-0.000003	0.000000	0.000000
34.510739	18.273168	17.033100	2.576804	-2.408093	2.639573	0.000000	-0.354469	0.000000	0.000024	-0.000004	0.000000	0.000000
34.956699	16.252407	19.046859	1.970689	-2.088612	2.497834	0.000000	-0.281554	0.000000	0.000023	-0.000003	0.000000	0.000000
35.397659	14.745490	20.712731	1.459629	-1.674843	2.389060	0.000000	-0.212273	0.000000	0.000021	-0.000003	0.000000	0.000000
35.838619	13.658288	21.978568	1.015255	-1.184870	2.310274	0.000000	-0.145410	0.000000	0.000020	-0.000002	0.000000	0.000000
36.279579	12.941132	22.786773	0.617266	-0.640987	2.260579	0.000000	-0.080202	0.000000	0.000020	-0.000002	0.000000	0.000000
36.721789	12.560560	23.100887	0.278168	-0.124633	2.239382	0.000000	-0.021399	0.000000	0.000019	-0.000001	0.000000	0.000000
37.019112	12.402732	23.178885	0.252666	-0.137703	2.233020	0.000000	-0.021399	0.000000	0.000019	-0.000001	0.000000	0.000000
37.352445	12.243818	23.275572	0.224074	-0.152357	2.225887	0.000000	-0.021399	0.000000	0.000018	-0.000001	0.000000	0.000000
37.685779	12.103966	23.382028	0.195482	-0.167010	2.218755	0.000000	-0.021399	0.000000	0.000018	-0.000001	0.000000	0.000000
38.020362	11.982758	23.498707	0.166784	-0.181719	2.211595	0.000000	-0.021399	0.000000	0.000017	-0.000001	0.000000	0.000000
38.317684	11.891163	23.610651	0.170437	-0.252681	2.205233	0.000000	-0.026806	0.000000	0.000017	-0.000001	0.000000	0.000000
38.758644	11.892418	23.571964	-0.173295	0.340082	2.207338	0.000000	0.036360	0.000000	0.000016	-0.000001	0.000000	0.000000
39.199604	12.199150	23.015359	-0.524943	0.917371	2.237361	0.000000	0.099941	0.000000	0.000016	-0.000000	0.000000	0.000000
39.640564	12.825371	21.966163	-0.900575	1.452921	2.295646	0.000000	0.164661	0.000000	0.000016	-0.000000	0.000000	0.000000
40.081524	13.799692	20.472112	-1.317352	1.922363	2.382854	0.000000	0.231255	0.000000	0.000016	0.000000	0.000000	0.000000
40.527484	15.184206	18.578606	-1.798143	2.305627	2.501452	0.000000	0.300889	0.000000	0.000016	0.000001	0.000000	0.000000
41.076544	16.950881	16.450705	-1.400446	1.592782	2.646132	0.000000	0.225346	0.000000	0.000017	0.000000	0.000000	0.000000
41.625604	18.223600	15.039076	-0.903828	0.993387	2.748174	0.000000	0.145805	0.000000	0.000017	-0.000000	0.000000	0.000000
42.174664	18.912463	14.243170	-0.343368	0.464748	2.805769	0.000000	0.063678	0.000000	0.000016	-0.000001	0.000000	0.000000
42.723724	18.968812	14.006298	0.241346	-0.030787	2.817894	0.000000	-0.019578	0.000000	0.000016	-0.000001	0.000000	0.000000
43.022297	18.859158	14.009196	0.175471	-0.015514	2.814247	0.000000	-0.012217	0.000000	0.000015	-0.000001	0.000000	0.000000
43.502297	18.703298	14.040540	0.149236	-0.049785	2.808384	0.000000	-0.012217	0.000000	0.000015	-0.000001	0.000000	0.000000
43.982297	18.572625	14.104784	0.123000	-0.084056	2.802520	0.000000	-0.012217	0.000000	0.000014	-0.000001	0.000000	0.000000
44.462297	18.467138	14.201928	0.096765	-0.118328	2.796657	0.000000	-0.012217	0.000000	0.000013	-0.000001	0.000000	0.000000
44.942297	18.386836	14.331973	0.070529	-0.152599	2.790794	0.000000	-0.012217	0.000000	0.000013	-0.000001	0.000000	0.000000
45.423547	18.331837	14.495207	-0.046601	-0.115142	2.784932	0.000000	0.001582	0.000000	0.000012	-0.000001	0.000000	0.000000
45.720870	18.364381	14.569855	-0.110833	-0.097861	2.785403	0.000000	0.008859	0.000000	0.000012	-0.000001	0.000000	0.000000
46.269930	18.176878	14.959047	0.450309	-0.615157	2.767699	0.000000	-0.073255	0.000000	0.000011	-0.000002	0.000000	0.000000
46.818990	17.387073	15.936875	0.979643	-1.176268	2.705201	0.000000	-0.154068	0.000000	0.000010	-0.000002	0.000000	0.000000
47.368050	16.050754	17.572987	1.439779	-1.821163	2.599017	0.000000	-0.232150	0.000000	0.000009	-0.000002	0.000000	0.000000
47.917110	14.262311	19.983920	1.798217	-2.595775	2.451032	0.000000	-0.306113	0.000000	0.000008	-0.000002	0.000000	0.000000
48.363070	12.870647	22.127363	1.333442	-2.190374	2.329809	0.000000	-0.237821	0.000000	0.000007	-0.000002	0.000000	0.000000
48.804030	11.874856	23.843479	0.933359	-1.686589	2.239399	0.000000	-0.172635	0.000000	0.000006	-0.000002	0.000000	0.000000
49.244990	11.211840	25.079632	0.575918	-1.106066	2.177272	0.000000	-0.109416	0.000000	0.000005	-0.000002	0.000000	0.000000
49.685950	10.851308	25.779579	0.244789	-0.475218	2.142722	0.000000	-0.047442	0.000000	0.000004	-0.000002	0.000000	0.000000
50.128160	10.776911	25.911188	-0.048845	0.113663	2.135365	0.000000	0.008755	0.000000	0.000003	-0.000002	0.000000	0.000000
50.425482	10.814178	25.847054	-0.076499	0.102040	2.137969	0.000000	0.008755	0.000000	0.000003	-0.000002	0.000000	0.000000
50.758816	10.875512	25.783371	-0.107503	0.089010	2.140888	0.000000	0.008755	0.000000	0.000002	-0.000002	0.000000	0.000000
51.092149	10.957516	25.728375	-0.138508	0.075979	2.143806	0.000000	0.008755	0.000000	0.000001	-0.000002	0.000000	0.000000
51.426732	11.060389	25.682429	-0.079899	-0.145449	2.146714	0.000000	-0.008661	0.000000	0.000001	-0.000002	0.000000	0.000000
51.724055	11.115944	25.772435	-0.079693	-0.220473	2.144140	0.000000	-0.013919	0.000000	0.000000	-0.000002	0.000000	0.000000
52.165015	11.331395	25.680122	-0.410756	0.429022	2.151591	0.000000	0.047742	0.000000	-0.000001	-0.000002	0.000000	0.000000
52.605975	11.845957	25.021459	-0.760586	1.058996	2.186326	0.000000	0.109947	0.000000	-0.000001	-0.000002	0.000000	0.000000
53.046935	12.683141	23.826414	-1.145165	1.640787	2.248741	0.000000	0.173404	0.000000	-0.000002	-0.000002	0.000000	0.000000
53.487895	13.881193	22.149363	-1.582063	2.147924	2.339545	0.000000	0.238835	0.000000	-0.000003	-0.000002	0.000000	0.000000
53.933855	15.515391	20.041536	-2.095464	2.558670	2.461280	0.000000	0.307386	0.000000	-0.000004	-0.000002	0.000000	0.000000
54.482915	17.619433	17.669625	-1.713932	1.786778	2.609874	0.000000	0.233081	0.000000	-0.000005	-0.000002	0.000000	0.000000
55.031975	19.235145	16.070903	-1.211337	1.142153	2.716473	0.000000	0.154641	0.000000	-0.000006	-0.000002	0.000000	0.000000
55.581035	20.248402	15.131497	-0.623179	0.578881	2.779187	0.000000	0.073459	0.000000	-0.000007	-0.000002	0.000000	0.000000
56.130095	20.587632	14.784496	0.008998	0.056842	2.796902	0.000000	-0.009027	0.000000	-0.000008	-0.000001	0.000000	0.000000
56.428668	20.618721	14.733568	-0.059329	0.075095	2.796389	0.000000	-0.001719	0.000000	-0.000008	-0.000001	0.000000	0.000000
56.762001	20.663681	14.691089	-0.075553	0.052343	2.795817	0.000000	-0.001719	0.000000	-0.000009	-0.000001	0.000000	0.000000
57.095334	20.719458	14.663778	-0.091776	0.029592	2.795244	0.000000	-0.001719	0.000000	-0.000009	-0.000001	0.000000	0.000000
57.429918	20.786320	14.651617	-0.108060	0.006755	2.794670	0.000000	-0.001719	0.000000	-0.000010	-0.000001	0.000000	0.000000
57.727240	20.854880	14.653634	-0.177026	0.024751	2.794159	0.000000	0.005583	0.000000	-0.000010	-0.000001	0.000000	0.000000
58.276300	20.693528	14.907776	0.469154	-0.490351	2.774584	0.000000	-0.076784	0.000000	-0.000011	-0.000001	0.000000	0.000000
58.825360	19.836672	15.743306	1.082195	-1.040379	2.710093	0.000000	-0.157788	0.000000	-0.000011	-0.000001	0.000000	0.000000
59.374420	18.344836	17.219738	1.618795	-1.664511	2.601828	0.000000	-0.235994	0.000000	-0.000011	-0.000000	0.000000	0.000000
59.923480	16.323395	19.442234	2.041051	-2.407203	2.451712	0.000000	-0.310014	0.000000	-0.000011	0.000000	0.000000	0.000000
60.369440	14.741282	21.417558	1.519170	-2.003474	2.328749	0.000000	-0.241728	0.000000	-0.000011	-0.000000	0.000000	0.000000
60.810400	13.603485	22.972762	1.070893	-1.509966	2.236606	0.000000	-0.176591	0.000000	-0.000012	-0.000001	0.000000	0.000000
61.251360	12.838044	24.060658	0.671542	-0.947756	2.172715	0.000000	-0.113466	0.000000	-0.000012	-0.000001	0.000000	0.000000
61.692320	12.409990	24.631749	0.302873	-0.342423	2.136348	0.000000	-0.051634	0.000000	-0.000012	-0.000001	0.000000	0.000000
62.134530	12.299820	24.659504	-0.021895	0.217955	2.127098	0.000000	0.004394	0.000000	-0.000013	-0.000001	0.000000	0.000000
62.431853	12.320031	24.533653	-0.046080	0.205325	2.128405	0.000000	0.004394	0.000000	-0.000013	-0.000001	0.000000	0.000000
62.765186	12.359788	24.401490	-0.073193	0.191166	2.129870	0.000000	0.004394	0.000000	-0.000014	-0.000001	0.000000	0.000000
63.098520	12.417621	24.278766	-0.100307	0.177006	2.131335	0.000000	0.004394	0.000000	-0.000014	-0.000001	0.000000	0.000000
63.433103	12.493849	24.165075	-0.127522	0.162793	2.132806	0.000000	0.004394	0.000000	-0.000015	-0.000001	0.000000	0.000000
63.730426	12.576870	24.072026	-0.120860	0.091123	2.134112	0.000000	-0.000840	0.000000	-0.000015	-0.000001	0.000000	0.000000
64.171386	12.843665	23.726572	-0.486468	0.689308	2.147284	0.000000	0.060636	0.000000	-0.000016	-0.000002	0.000000	0.000000
64.612346	13.441441	22.865436	-0.874300	1.256130	2.187691	0.000000	0.122802	0.000000	-0.000017	-0.000002	0.000000	0.000000
65.053306	14.397509	21.527796	-1.302077	1.765799	2.255793	0.000000	0.186368	0.000000	-0.000018	-0.000003	0.000000	0.000000
65.494266	15.755549	19.774516	-1.789343	2.195125	2.352366	0.000000	0.252056	0.000000	-0.000019	-0.000003	0.000000	0.000000
65.940226	17.600767	17.660566	-2.363049	2.525326	2.480082	0.000000	0.321016	0.000000	-0.000021	-0.000004	0.000000	0.000000
66.489286	19.966328	15.295792	-1.919835	1.807049	2.635972	0.000000	0.245984	0.000000	-0.000022	-0.000003	0.000000	0.000000
67.038346	21.767390	13.644887	-1.341014	1.217484	2.749403	0.000000	0.166588	0.000000	-0.000024	-0.000002	0.000000	0.000000
67.587406	22.876734	12.590261	-0.667470	0.714638	2.818365	0.000000	0.084237	0.000000	-0.000025	-0.000001	0.000000	0.000000
68.136466	23.216002	12.056796	0.053220	0.262694	2.841633	0.000000	0.000392	0.000000	-0.000025	-0.000001	0.000000	0.000000
68.435038	23.224292	11.889148	-0.020314	0.267296	2.843967	0.000000	0.007818	0.000000	-0.000025	-0.000001	0.000000	0.000000
68.768372	23.242621	11.720964	-0.034672	0.237256	2.846574	0.000000	0.007818	0.000000	-0.000026	-0.000001	0.000000	0.000000
69.101705	23.270522	11.572807	-0.049031	0.207216	2.849180	0.000000	0.007818	0.000000	-0.000026	-0.000001	0.000000	0.000000
69.436288	23.308154	11.444233	-0.063444	0.177063	2.851796	0.000000	0.007818	0.000000	-0.000026	-0.000001	0.000000	0.000000
69.733611	23.349688	11.346910	-0.137273	0.179923	2.854121	0.000000	0.015277	0.000000	-0.000026	-0.000001	0.000000	0.000000
70.282671	23.099401	11.376639	0.590422	-0.234387	2.839321	0.000000	-0.069109	0.000000	-0.000026	0.000000	0.000000	0.000000
