#ParticleID	Turn	x[m]	xp	y[m]	yp	z[m]	dE[GeV]# s	beta_x	beta_y	alpha_x	alpha_y	D_x	D_y	D_px	D_py	orbit_x	orbit_px	orbit_y	orbit_py
0.300000	11.829722	24.955606	-0.013056	-0.027741	2.618236	0.000000	-0.000035	0.000000	0.000000	0.000000	0.000000	0.000000
0.601250	11.845262	24.975959	-0.038526	-0.039821	2.618225	0.000000	-0.000035	0.000000	0.000000	0.000000	0.000000	0.000000
0.898573	11.875645	25.003184	-0.034542	-0.113060	2.618214	0.000000	-0.006456	0.000000	0.000000	0.000000	0.000000	0.000000
1.339533	12.058436	24.825575	-0.381560	0.514303	2.631661	0.000000	0.067504	0.000000	0.000000	0.000000	0.000000	0.000000
1.780493	12.553770	24.102928	-0.746011	1.118265	2.677860	0.000000	0.142232	0.000000	0.000001	0.000000	0.000000	0.000000
2.221453	13.384279	22.868122	-1.144544	1.671347	2.757336	0.000000	0.218581	0.000000	0.000001	0.000000	0.000000	0.000000
2.662413	14.587905	21.177339	-1.595369	2.148384	2.870995	0.000000	0.297418	0.000000	0.000001	0.000000	0.000000	0.000000
3.108373	16.240441	19.082710	-2.123381	2.528802	3.021993	0.000000	0.380133	0.000000	0.000001	0.000000	0.000000	0.000000
3.657433	18.359498	16.730235	-1.713200	1.781038	3.205437	0.000000	0.287096	0.000000	0.000001	0.000000	0.000000	0.000000
4.206493	19.958607	15.124833	-1.182008	1.160133	3.336323	0.000000	0.188966	0.000000	0.000001	0.000000	0.000000	0.000000
4.755553	20.924816	14.152153	-0.567324	0.621861	3.412328	0.000000	0.087484	0.000000	0.000001	0.000000	0.000000	0.000000
5.304613	21.189874	13.742913	0.087432	0.127884	3.432105	0.000000	-0.015550	0.000000	0.000002	0.000000	0.000000	0.000000
5.603185	21.174936	13.651767	0.017963	0.141483	3.430140	0.000000	-0.006582	0.000000	0.000002	0.000000	0.000000	0.000000
5.936519	21.168210	13.565747	0.002216	0.116577	3.427946	0.000000	-0.006582	0.000000	0.000002	0.000000	0.000000	0.000000
6.269852	21.171982	13.496331	-0.013531	0.091671	3.425752	0.000000	-0.006582	0.000000	0.000002	0.000000	0.000000	0.000000
6.604435	21.186324	13.443351	-0.029337	0.066672	3.423550	0.000000	-0.006582	0.000000	0.000002	0.000000	0.000000	0.000000
6.901758	21.207946	13.410310	-0.098794	0.079496	3.421592	0.000000	0.002358	0.000000	0.000002	0.000000	0.000000	0.000000
7.450818	20.954915	13.583533	0.556909	-0.396849	3.394687	0.000000	-0.100220	0.000000	0.000002	0.000000	0.000000	0.000000
7.999878	19.999283	14.292200	1.173275	-0.901460	3.311866	0.000000	-0.201019	0.000000	0.000002	0.000000	0.000000	0.000000
8.548938	18.408550	15.586787	1.706767	-1.470281	3.174598	0.000000	-0.298254	0.000000	0.000002	0.000000	0.000000	0.000000
9.097998	16.295078	17.559503	2.119702	-2.143826	2.985319	0.000000	-0.390198	0.000000	0.000002	-0.000000	0.000000	0.000000
9.543958	14.646065	19.317356	1.591117	-1.781243	2.829612	0.000000	-0.308495	0.000000	0.000002	-0.000000	0.000000	0.000000
9.984918	13.446513	20.698446	1.139522	-1.338845	2.710824	0.000000	-0.230790	0.000000	0.000002	0.000000	0.000000	0.000000
10.425878	12.620856	21.660922	0.739990	-0.835531	2.625688	0.000000	-0.155714	0.000000	0.000002	0.000000	0.000000	0.000000
10.866838	12.131371	22.160991	0.374265	-0.294200	2.573236	0.000000	-0.082411	0.000000	0.000002	0.000000	0.000000	0.000000
11.309048	11.955558	22.175386	0.054853	0.206077	2.552850	0.000000	-0.016307	0.000000	0.000002	0.000000	0.000000	0.000000
11.606371	11.930357	22.056999	0.029909	0.192100	2.548002	0.000000	-0.016307	0.000000	0.000002	0.000000	0.000000	0.000000
12.086371	11.920974	21.883414	-0.010361	0.169535	2.540174	0.000000	-0.016307	0.000000	0.000002	0.000000	0.000000	0.000000
12.566371	11.950250	21.731492	-0.050630	0.146970	2.532347	0.000000	-0.016307	0.000000	0.000002	0.000000	0.000000	0.000000
13.046371	12.018184	21.601232	-0.090900	0.124405	2.524519	0.000000	-0.016307	0.000000	0.000003	0.000000	0.000000	0.000000
13.526371	12.124777	21.492634	-0.131169	0.101840	2.516692	0.000000	-0.016307	0.000000	0.000003	0.000000	0.000000	0.000000
14.007621	12.270458	21.405501	-0.171544	0.079217	2.508844	0.000000	-0.016307	0.000000	0.000003	0.000000	0.000000	0.000000
14.304943	12.379881	21.362551	-0.166129	0.012853	2.503995	0.000000	-0.022447	0.000000	0.000003	0.000000	0.000000	0.000000
14.745903	12.685109	21.117375	-0.528686	0.541035	2.509727	0.000000	0.048468	0.000000	0.000003	0.000000	0.000000	0.000000
15.186863	13.319485	20.415504	-0.915396	1.044599	2.546821	0.000000	0.119936	0.000000	0.000003	0.000000	0.000000	0.000000
15.627823	14.311992	19.288870	-1.343929	1.500635	2.615701	0.000000	0.192770	0.000000	0.000003	0.000000	0.000000	0.000000
16.068783	15.707975	17.788736	-1.833862	1.888393	2.717150	0.000000	0.267799	0.000000	0.000003	0.000001	0.000000	0.000000
16.514743	17.594867	15.961854	-2.412337	2.190980	2.854019	0.000000	0.346340	0.000000	0.000004	0.000001	0.000000	0.000000
17.063803	20.018066	13.921850	-1.974897	1.546399	3.020453	0.000000	0.259021	0.000000	0.000004	0.000000	0.000000	0.000000
17.612863	21.880995	12.525398	-1.397960	1.011965	3.137610	0.000000	0.167107	0.000000	0.000004	0.000000	0.000000	0.000000
18.161923	23.052065	11.673030	-0.722278	0.549610	3.203412	0.000000	0.072229	0.000000	0.000004	0.000000	0.000000	0.000000
18.710983	23.448558	11.304036	0.004422	0.126403	3.216691	0.000000	-0.023930	0.000000	0.000004	0.000000	0.000000	0.000000
19.009556	23.486316	11.218997	-0.069617	0.128883	3.212055	0.000000	-0.015526	0.000000	0.000004	0.000000	0.000000	0.000000
19.342889	23.537481	11.143144	-0.083878	0.098677	3.206880	0.000000	-0.015526	0.000000	0.000004	0.000000	0.000000	0.000000
19.676223	23.598153	11.087427	-0.098140	0.068472	3.201705	0.000000	-0.015526	0.000000	0.000004	0.000000	0.000000	0.000000
20.010806	23.668908	11.051615	-0.229724	0.092911	3.196530	0.000000	0.000312	0.000000	0.000004	0.000000	0.000000	0.000000
20.308129	23.809444	11.004434	-0.305156	0.094527	3.196622	0.000000	0.008663	0.000000	0.000004	0.000000	0.000000	0.000000
20.857189	23.733898	11.123162	0.441933	-0.312042	3.175164	0.000000	-0.086713	0.000000	0.000005	-0.000000	0.000000	0.000000
21.406249	22.850315	11.697863	1.157805	-0.740836	3.101683	0.000000	-0.180551	0.000000	0.000004	-0.000000	0.000000	0.000000
21.955309	21.221108	12.769472	1.791896	-1.222399	2.977485	0.000000	-0.271187	0.000000	0.000004	-0.000000	0.000000	0.000000
22.504369	18.961355	14.414317	2.299416	-1.791031	2.804771	0.000000	-0.357013	0.000000	0.000004	-0.000000	0.000000	0.000000
22.950329	17.180617	15.890927	1.707725	-1.506084	2.662849	0.000000	-0.279814	0.000000	0.000004	-0.000000	0.000000	0.000000
23.391289	15.903820	17.068164	1.198753	-1.153469	2.555782	0.000000	-0.206257	0.000000	0.000004	-0.000000	0.000000	0.000000
23.832249	15.050141	17.910003	0.744548	-0.748372	2.480602	0.000000	-0.135050	0.000000	0.000004	-0.000000	0.000000	0.000000
24.273209	14.580577	18.378143	0.324359	-0.309225	2.436454	0.000000	-0.065380	0.000000	0.000004	-0.000000	0.000000	0.000000
24.715418	14.473789	18.451036	-0.045605	0.098677	2.422830	0.000000	-0.002396	0.000000	0.000004	0.000000	0.000000	0.000000
25.012741	14.507028	18.397196	-0.066189	0.082406	2.422118	0.000000	-0.002396	0.000000	0.000004	0.000000	0.000000	0.000000
25.346075	14.558847	18.348339	-0.089267	0.064164	2.421319	0.000000	-0.002396	0.000000	0.000004	0.000000	0.000000	0.000000
25.679408	14.626052	18.311644	-0.112345	0.045922	2.420520	0.000000	-0.002396	0.000000	0.000004	0.000000	0.000000	0.000000
26.013991	14.708682	18.287411	-0.016184	-0.120744	2.419694	0.000000	-0.022026	0.000000	0.000004	-0.000000	0.000000	0.000000
26.311314	14.724317	18.364116	-0.000296	-0.182272	2.413145	0.000000	-0.027944	0.000000	0.000004	-0.000000	0.000000	0.000000
26.752274	14.906013	18.325654	-0.413315	0.269163	2.415931	0.000000	0.040592	0.000000	0.000004	0.000000	0.000000	0.000000
27.193234	15.458879	17.892963	-0.845218	0.708351	2.449011	0.000000	0.109589	0.000000	0.000004	0.000000	0.000000	0.000000
27.634194	16.408173	17.085729	-1.315737	1.115310	2.512763	0.000000	0.179836	0.000000	0.000004	0.000000	0.000000	0.000000
28.075154	17.797265	15.940682	-1.846368	1.471523	2.607912	0.000000	0.252130	0.000000	0.000004	0.000000	0.000000	0.000000
28.521114	19.713758	14.492674	-2.466310	1.761697	2.737145	0.000000	0.327739	0.000000	0.000004	0.000000	0.000000	0.000000
29.070174	22.149628	12.879158	-1.943864	1.194337	2.894433	0.000000	0.244354	0.000000	0.000004	0.000000	0.000000	0.000000
29.619234	23.932536	11.838582	-1.284114	0.712046	3.004679	0.000000	0.156636	0.000000	0.000005	0.000000	0.000000	0.000000
30.168294	24.936547	11.296828	-0.533660	0.280472	3.065927	0.000000	0.066139	0.000000	0.000005	0.000000	0.000000	0.000000
30.717354	25.090741	11.215308	0.254489	-0.131124	3.077092	0.000000	-0.025532	0.000000	0.000005	-0.000000	0.000000	0.000000
31.015927	24.981600	11.284141	0.176610	-0.128719	3.071869	0.000000	-0.017492	0.000000	0.000005	-0.000000	0.000000	0.000000
31.349260	24.868446	11.379963	0.162850	-0.158749	3.066039	0.000000	-0.017492	0.000000	0.000005	-0.000000	0.000000	0.000000
31.682593	24.764466	11.495805	0.149091	-0.188778	3.060208	0.000000	-0.017492	0.000000	0.000004	-0.000000	0.000000	0.000000
32.017177	24.669320	11.632214	0.135280	-0.218920	3.054355	0.000000	-0.017492	0.000000	0.000004	-0.000000	0.000000	0.000000
32.314499	24.592526	11.770358	0.058754	-0.214953	3.049155	0.000000	-0.009525	0.000000	0.000004	-0.000000	0.000000	0.000000
32.863559	24.106724	12.245743	0.820797	-0.655974	3.019047	0.000000	-0.099983	0.000000	0.000004	-0.000000	0.000000	0.000000
33.412619	22.811145	13.228085	1.524864	-1.143720	2.939687	0.000000	-0.188668	0.000000	0.000004	-0.000000	0.000000	0.000000
33.961679	20.797304	14.787353	2.121222	-1.712930	2.812482	0.000000	-0.274006	0.000000	0.000004	-0.000000	0.000000	0.000000
34.510739	18.207448	17.034611	2.567747	-2.404148	2.639688	0.000000	-0.354484	0.000000	0.000004	-0.000001	0.000000	0.000000
34.956699	16.193857	19.044633	1.963614	-2.084211	2.497942	0.000000	-0.281566	0.000000	0.000003	-0.000001	0.000000	0.000000
35.397659	14.692435	20.706498	1.454195	-1.670192	2.389162	0.000000	-0.212282	0.000000	0.000003	-0.000000	0.000000	0.000000
35.838619	13.609396	21.968199	1.011215	-1.180180	2.310371	0.000000	-0.145417	0.000000	0.000003	-0.000000	0.000000	0.000000
36.279579	12.895259	22.772331	0.614435	-0.636472	2.260673	0.000000	-0.080207	0.000000	0.000003	-0.000000	0.000000	0.000000
36.721789	12.516705	23.082605	0.276314	-0.120462	2.239475	0.000000	-0.021403	0.000000	0.000003	-0.000000	0.000000	0.000000
37.019112	12.359998	23.158123	0.250746	-0.133530	2.233111	0.000000	-0.021403	0.000000	0.000003	-0.000000	0.000000	0.000000
37.352445	12.202388	23.252027	0.222082	-0.148181	2.225977	0.000000	-0.021403	0.000000	0.000003	-0.000000	0.000000	0.000000
37.685779	12.063888	23.355697	0.193418	-0.162831	2.218843	0.000000	-0.021403	0.000000	0.000003	-0.000000	0.000000	0.000000
38.020362	11.944086	23.469578	0.164646	-0.177536	2.211682	0.000000	-0.021403	0.000000	0.000002	-0.000000	0.000000	0.000000
38.317684	11.853782	23.579035	0.168146	-0.248426	2.205319	0.000000	-0.026811	0.000000	0.000002	-0.000000	0.000000	0.000000
38.758644	11.856687	23.536977	-0.174758	0.343441	2.207422	0.000000	0.036358	0.000000	0.000002	-0.000000	0.000000	0.000000
39.199604	12.164369	22.977863	-0.525646	0.919681	2.237445	0.000000	0.099942	0.000000	0.000002	-0.000000	0.000000	0.000000
39.640564	12.790887	21.927133	-0.900549	1.454076	2.295729	0.000000	0.164663	0.000000	0.000002	-0.000000	0.000000	0.000000
40.081524	13.764864	20.432593	-1.316596	1.922312	2.382939	0.000000	0.231260	0.000000	0.000002	0.000000	0.000000	0.000000
40.527484	15.148363	18.539677	-1.796618	2.304363	2.501540	0.000000	0.300896	0.000000	0.000002	0.000000	0.000000	0.000000
41.076544	16.914105	16.412609	-1.400282	1.592521	2.646223	0.000000	0.225349	0.000000	0.000002	-0.000000	0.000000	0.000000
41.625604	18.187401	15.000727	-0.905037	0.994110	2.748266	0.000000	0.145806	0.000000	0.000002	-0.000000	0.000000	0.000000
42.174664	18.878312	14.203466	-0.345865	0.466508	2.805860	0.000000	0.063676	0.000000	0.000002	-0.000000	0.000000	0.000000
42.723724	18.938034	13.964039	0.237737	-0.027866	2.817983	0.000000	-0.019583	0.000000	0.000002	-0.000000	0.000000	0.000000
43.022297	18.830491	13.965276	0.171932	-0.012764	2.814334	0.000000	-0.012220	0.000000	0.000002	-0.000000	0.000000	0.000000
43.502297	18.678034	13.994031	0.145688	-0.047141	2.808469	0.000000	-0.012220	0.000000	0.000002	-0.000000	0.000000	0.000000
43.982297	18.550771	14.055787	0.119444	-0.081517	2.802603	0.000000	-0.012220	0.000000	0.000002	-0.000000	0.000000	0.000000
44.462297	18.448702	14.150544	0.093200	-0.115894	2.796737	0.000000	-0.012220	0.000000	0.000002	-0.000000	0.000000	0.000000
44.942297	18.371827	14.278303	0.066956	-0.150271	2.790871	0.000000	-0.012220	0.000000	0.000002	-0.000000	0.000000	0.000000
45.423547	18.320272	14.439347	-0.050126	-0.113195	2.785008	0.000000	0.001578	0.000000	0.000001	-0.000000	0.000000	0.000000
45.720870	18.354916	14.512858	-0.114353	-0.096131	2.785477	0.000000	0.008856	0.000000	0.000001	-0.000000	0.000000	0.000000
46.269930	18.171422	14.899189	0.446571	-0.611644	2.767770	0.000000	-0.073260	0.000000	0.000001	-0.000000	0.000000	0.000000
46.818990	17.385720	15.872072	0.975952	-1.170722	2.705268	0.000000	-0.154076	0.000000	0.000001	-0.000000	0.000000	0.000000
47.368050	16.053309	17.500805	1.436396	-1.813189	2.599079	0.000000	-0.232159	0.000000	0.000001	-0.000000	0.000000	0.000000
47.917110	14.268303	19.901397	1.795381	-2.584805	2.451086	0.000000	-0.306124	0.000000	0.000001	-0.000000	0.000000	0.000000
48.363070	12.879091	22.035835	1.330760	-2.181239	2.329858	0.000000	-0.237831	0.000000	0.000001	-0.000000	0.000000	0.000000
48.804030	11.885644	23.744857	0.930705	-1.679697	2.239443	0.000000	-0.172644	0.000000	0.000001	-0.000000	0.000000	0.000000
49.244990	11.225000	24.976041	0.573172	-1.101731	2.177312	0.000000	-0.109423	0.000000	0.000000	-0.000000	0.000000	0.000000
49.685950	10.866977	25.673368	0.241825	-0.473636	2.142758	0.000000	-0.047449	0.000000	0.000000	-0.000000	0.000000	0.000000
50.128160	10.795348	25.804830	-0.052116	0.112677	2.135398	0.000000	0.008749	0.000000	0.000000	-0.000000	0.000000	0.000000
50.425482	10.834550	25.741296	-0.079733	0.101009	2.137999	0.000000	0.008749	0.000000	0.000000	-0.000000	0.000000	0.000000
50.758816	10.898026	25.678317	-0.110694	0.087928	2.140915	0.000000	0.008749	0.000000	-0.000000	-0.000000	0.000000	0.000000
51.092149	10.982142	25.624059	-0.141656	0.074846	2.143832	0.000000	0.008749	0.000000	-0.000000	-0.000000	0.000000	0.000000
51.426732	11.087107	25.578887	-0.082787	-0.145793	2.146737	0.000000	-0.008667	0.000000	-0.000000	-0.000000	0.000000	0.000000
51.724055	11.144364	25.669111	-0.082459	-0.220612	2.144160	0.000000	-0.013925	0.000000	-0.000000	-0.000000	0.000000	0.000000
52.165015	11.362560	25.578128	-0.414240	0.426158	2.151608	0.000000	0.047736	0.000000	-0.000000	-0.000000	0.000000	0.000000
52.605975	11.880568	24.923149	-0.764946	1.053538	2.186340	0.000000	0.109941	0.000000	-0.000001	-0.000000	0.000000	0.000000
53.046935	12.722055	23.733975	-1.150600	1.632983	2.248752	0.000000	0.173398	0.000000	-0.000001	-0.000000	0.000000	0.000000
53.487895	13.925465	22.064714	-1.588822	2.138129	2.339554	0.000000	0.238831	0.000000	-0.000001	-0.000000	0.000000	0.000000
53.933855	15.566403	19.966354	-2.103871	2.547325	2.461285	0.000000	0.307382	0.000000	-0.000001	-0.000000	0.000000	0.000000
54.482915	17.679006	17.605260	-1.721024	1.778305	2.609876	0.000000	0.233076	0.000000	-0.000001	-0.000000	0.000000	0.000000
55.031975	19.301549	16.014549	-1.216612	1.135950	2.716471	0.000000	0.154636	0.000000	-0.000001	-0.000000	0.000000	0.000000
55.581035	20.319425	15.080917	-0.626265	0.574505	2.779182	0.000000	0.073454	0.000000	-0.000002	-0.000000	0.000000	0.000000
56.130095	20.660735	14.737865	0.008318	0.053982	2.796894	0.000000	-0.009031	0.000000	-0.000002	-0.000000	0.000000	0.000000
56.428668	20.692328	14.688736	-0.060147	0.072058	2.796379	0.000000	-0.001723	0.000000	-0.000002	-0.000000	0.000000	0.000000
56.762001	20.737815	14.648301	-0.076314	0.049247	2.795805	0.000000	-0.001723	0.000000	-0.000002	-0.000000	0.000000	0.000000
57.095334	20.794080	14.623073	-0.092481	0.026436	2.795230	0.000000	-0.001723	0.000000	-0.000002	-0.000000	0.000000	0.000000
57.429918	20.861395	14.613044	-0.108709	0.003539	2.794654	0.000000	-0.001723	0.000000	-0.000002	-0.000000	0.000000	0.000000
57.727240	20.930326	14.616989	-0.177818	0.021385	2.794142	0.000000	0.005577	0.000000	-0.000002	-0.000000	0.000000	0.000000
58.276300	20.768453	14.874268	0.470891	-0.492731	2.774563	0.000000	-0.076789	0.000000	-0.000002	-0.000000	0.000000	0.000000
58.825360	19.908349	15.711951	1.086339	-1.041942	2.710069	0.000000	-0.157793	0.000000	-0.000002	-0.000000	0.000000	0.000000
59.374420	18.410767	17.189704	1.625053	-1.665369	2.601802	0.000000	-0.235998	0.000000	-0.000002	0.000000	0.000000	0.000000
59.923480	16.381489	19.412786	2.048982	-2.407416	2.451684	0.000000	-0.310017	0.000000	-0.000002	0.000000	0.000000	0.000000
60.369440	14.793092	21.388754	1.525379	-2.004701	2.328720	0.000000	-0.241731	0.000000	-0.000002	0.000000	0.000000	0.000000
60.810400	13.650465	22.945466	1.075678	-1.512144	2.236575	0.000000	-0.176595	0.000000	-0.000002	-0.000000	0.000000	0.000000
61.251360	12.881350	24.035668	0.675122	-0.950786	2.172682	0.000000	-0.113471	0.000000	-0.000002	-0.000000	0.000000	0.000000
61.692320	12.450608	24.609757	0.305411	-0.346168	2.136313	0.000000	-0.051639	0.000000	-0.000002	-0.000000	0.000000	0.000000
62.134530	12.338611	24.641078	-0.020190	0.213718	2.127059	0.000000	0.004388	0.000000	-0.000002	-0.000000	0.000000	0.000000
62.431853	12.357784	24.517743	-0.044297	0.201101	2.128364	0.000000	0.004388	0.000000	-0.000002	-0.000000	0.000000	0.000000
62.765186	12.396324	24.388391	-0.071323	0.186956	2.129827	0.000000	0.004388	0.000000	-0.000002	-0.000000	0.000000	0.000000
63.098520	12.452882	24.268469	-0.098350	0.172810	2.131289	0.000000	0.004388	0.000000	-0.000002	-0.000000	0.000000	0.000000
63.433103	12.527771	24.157580	-0.125478	0.158612	2.132757	0.000000	0.004388	0.000000	-0.000003	-0.000000	0.000000	0.000000
63.730426	12.609553	24.067014	-0.118661	0.086974	2.134062	0.000000	-0.000846	0.000000	-0.000003	-0.000000	0.000000	0.000000
64.171386	12.874719	23.725245	-0.484957	0.685134	2.147231	0.000000	0.060629	0.000000	-0.000003	-0.000000	0.000000	0.000000
64.612346	13.471440	22.867730	-0.873409	1.252121	2.187634	0.000000	0.122794	0.000000	-0.000003	-0.000000	0.000000	0.000000
65.053306	14.426980	21.533485	-1.301765	1.762138	2.255731	0.000000	0.186358	0.000000	-0.000003	-0.000000	0.000000	0.000000
65.494266	15.784993	19.783218	-1.789594	2.191978	2.352298	0.000000	0.252045	0.000000	-0.000003	-0.000000	0.000000	0.000000
65.940226	17.630694	17.671787	-2.363879	2.522843	2.480008	0.000000	0.321003	0.000000	-0.000003	-0.000001	0.000000	0.000000
66.489286	19.996506	15.309675	-1.919455	1.804653	2.635890	0.000000	0.245973	0.000000	-0.000004	-0.000000	0.000000	0.000000
67.038346	21.796495	13.661431	-1.339451	1.215004	2.749315	0.000000	0.166580	0.000000	-0.000004	-0.000000	0.000000	0.000000
67.587406	22.903521	12.609655	-0.664834	0.711898	2.818273	0.000000	0.084232	0.000000	-0.000004	-0.000000	0.000000	0.000000
68.136466	23.239387	12.079430	0.056743	0.259498	2.841538	0.000000	0.000390	0.000000	-0.000004	-0.000000	0.000000	0.000000
68.435038	23.245600	11.913629	-0.016827	0.264249	2.843872	0.000000	0.007815	0.000000	-0.000004	-0.000000	0.000000	0.000000
68.768372	23.261599	11.747441	-0.031171	0.234316	2.846477	0.000000	0.007815	0.000000	-0.000004	-0.000000	0.000000	0.000000
69.101705	23.287161	11.601207	-0.045514	0.204384	2.849082	0.000000	0.007815	0.000000	-0.000004	-0.000000	0.000000	0.000000
69.436288	23.322434	11.474493	-0.059912	0.174338	2.851697	0.000000	0.007815	0.000000	-0.000004	-0.000000	0.000000	0.000000
69.733611	23.361865	11.378762	-0.133749	0.177371	2.854020	0.000000	0.015272	0.000000	-0.000004	-0.000000	0.000000	0.000000
70.282671	23.107518	11.411792	0.594246	-0.237883	2.839218	0.000000	-0.069111	0.000000	-0.000004	0.000000	0.000000	0.000000
