#ParticleID	Turn	x[m]	xp	y[m]	yp	z[m]	dE[GeV]# s	beta_x	beta_y	alpha_x	alpha_y	D_x	D_y	D_px	D_py	orbit_x	orbit_px	orbit_y	orbit_py
0.300000	11.825915	24.969801	-0.012527	-0.027676	2.618155	0.000000	-0.000003	0.000000	0.000000	0.000000	0.000000	0.000000
0.601250	11.841137	24.990113	-0.038004	-0.039750	2.618154	0.000000	-0.000003	0.000000	0.000000	0.000000	0.000000	0.000000
0.898573	11.871213	25.017293	-0.034038	-0.113016	2.618153	0.000000	-0.006424	0.000000	0.000000	0.000000	0.000000	0.000000
1.339533	12.053511	24.839481	-0.380943	0.514719	2.631614	0.000000	0.067534	0.000000	0.000000	0.000000	0.000000	0.000000
1.780493	12.548241	24.116310	-0.745251	1.119034	2.677825	0.000000	0.142262	0.000000	0.000001	0.000000	0.000000	0.000000
2.221453	13.378004	22.880683	-1.143608	1.672434	2.757315	0.000000	0.218609	0.000000	0.000001	0.000000	0.000000	0.000000
2.662413	14.580711	21.188819	-1.594213	2.149739	2.870986	0.000000	0.297447	0.000000	0.000001	0.000000	0.000000	0.000000
3.108373	16.232097	19.092884	-2.121950	2.530364	3.021997	0.000000	0.380162	0.000000	0.000001	0.000000	0.000000	0.000000
3.657433	18.349689	16.738918	-1.711978	1.782208	3.205457	0.000000	0.287124	0.000000	0.000001	0.000000	0.000000	0.000000
4.206493	19.947611	15.132405	-1.181081	1.160995	3.336357	0.000000	0.188993	0.000000	0.000001	0.000000	0.000000	0.000000
4.755553	20.912994	14.158918	-0.566758	0.622477	3.412377	0.000000	0.087510	0.000000	0.000002	0.000000	0.000000	0.000000
5.304613	21.177648	13.749117	0.087598	0.128297	3.432168	0.000000	-0.015525	0.000000	0.000002	0.000000	0.000000	0.000000
5.603185	21.162595	13.657712	0.018153	0.141919	3.430210	0.000000	-0.006558	0.000000	0.000002	0.000000	0.000000	0.000000
5.936519	21.155745	13.571399	0.002396	0.117021	3.428024	0.000000	-0.006558	0.000000	0.000002	0.000000	0.000000	0.000000
6.269852	21.159400	13.501684	-0.013360	0.092123	3.425838	0.000000	-0.006558	0.000000	0.000002	0.000000	0.000000	0.000000
6.604435	21.173631	13.448400	-0.029175	0.067132	3.423644	0.000000	-0.006558	0.000000	0.000002	0.000000	0.000000	0.000000
6.901758	21.195159	13.415083	-0.098607	0.079975	3.421694	0.000000	0.002382	0.000000	0.000002	0.000000	0.000000	0.000000
7.450818	20.942160	13.587853	0.556666	-0.396497	3.394800	0.000000	-0.100199	0.000000	0.000002	0.000000	0.000000	0.000000
7.999878	19.987024	14.296191	1.172619	-0.901210	3.311990	0.000000	-0.201002	0.000000	0.000002	0.000000	0.000000	0.000000
8.548938	18.397218	15.590550	1.705745	-1.470115	3.174730	0.000000	-0.298241	0.000000	0.000002	0.000000	0.000000	0.000000
9.097998	16.285038	17.563125	2.118385	-2.143732	2.985457	0.000000	-0.390189	0.000000	0.000002	-0.000000	0.000000	0.000000
9.543958	14.637065	19.320836	1.590092	-1.781019	2.829755	0.000000	-0.308483	0.000000	0.000002	0.000000	0.000000	0.000000
9.984918	13.438306	20.701675	1.138742	-1.338501	2.710973	0.000000	-0.230774	0.000000	0.000002	0.000000	0.000000	0.000000
10.425878	12.613243	21.663800	0.739417	-0.835083	2.625845	0.000000	-0.155694	0.000000	0.000002	0.000000	0.000000	0.000000
10.866838	12.124182	22.163435	0.373874	-0.293669	2.573403	0.000000	-0.082387	0.000000	0.000002	0.000000	0.000000	0.000000
11.309048	11.948641	22.177332	0.054609	0.206663	2.553028	0.000000	-0.016279	0.000000	0.000003	0.000000	0.000000	0.000000
11.606371	11.923589	22.058598	0.029651	0.192683	2.548188	0.000000	-0.016279	0.000000	0.000003	0.000000	0.000000	0.000000
12.086371	11.914464	21.884454	-0.010641	0.170115	2.540374	0.000000	-0.016279	0.000000	0.000003	0.000000	0.000000	0.000000
12.566371	11.944019	21.731976	-0.050932	0.147547	2.532560	0.000000	-0.016279	0.000000	0.000003	0.000000	0.000000	0.000000
13.046371	12.012254	21.601164	-0.091224	0.124979	2.524746	0.000000	-0.016279	0.000000	0.000003	0.000000	0.000000	0.000000
13.526371	12.119169	21.492017	-0.131516	0.102411	2.516932	0.000000	-0.016279	0.000000	0.000003	0.000000	0.000000	0.000000
14.007621	12.265194	21.404335	-0.171913	0.079784	2.509098	0.000000	-0.016279	0.000000	0.000003	0.000000	0.000000	0.000000
14.304943	12.374842	21.361049	-0.166524	0.013423	2.504258	0.000000	-0.022420	0.000000	0.000003	0.000000	0.000000	0.000000
14.745903	12.680372	21.115393	-0.528979	0.541551	2.510003	0.000000	0.048503	0.000000	0.000003	0.000000	0.000000	0.000000
15.186863	13.314966	20.413098	-0.915601	1.045038	2.547114	0.000000	0.119978	0.000000	0.000004	0.000000	0.000000	0.000000
15.627823	14.307618	19.286118	-1.344054	1.500977	2.616014	0.000000	0.192819	0.000000	0.000004	0.000001	0.000000	0.000000
16.068783	15.703678	17.785730	-1.833913	1.888623	2.717487	0.000000	0.267857	0.000000	0.000004	0.000001	0.000000	0.000000
16.514743	17.590583	15.958698	-2.412316	2.191087	2.854383	0.000000	0.346407	0.000000	0.000004	0.000001	0.000000	0.000000
17.063803	20.013861	13.918550	-1.975062	1.546556	3.020851	0.000000	0.259075	0.000000	0.000005	0.000001	0.000000	0.000000
17.612863	21.877068	12.521893	-1.398299	1.012183	3.138035	0.000000	0.167148	0.000000	0.000005	0.000000	0.000000	0.000000
18.161923	23.048596	11.669245	-0.722767	0.549906	3.203855	0.000000	0.072256	0.000000	0.000005	0.000000	0.000000	0.000000
18.710983	23.445693	11.299874	0.003817	0.126798	3.217145	0.000000	-0.023917	0.000000	0.000005	0.000000	0.000000	0.000000
19.009556	23.483808	11.214609	-0.070216	0.129253	3.212514	0.000000	-0.015512	0.000000	0.000005	0.000000	0.000000	0.000000
19.342889	23.535373	11.138514	-0.084480	0.099033	3.207343	0.000000	-0.015512	0.000000	0.000005	0.000000	0.000000	0.000000
19.676223	23.596448	11.082565	-0.098744	0.068813	3.202172	0.000000	-0.015512	0.000000	0.000005	0.000000	0.000000	0.000000
20.010806	23.667608	11.046529	-0.230325	0.093212	3.197002	0.000000	0.000328	0.000000	0.000005	0.000000	0.000000	0.000000
20.308129	23.808503	10.999174	-0.305758	0.094800	3.197099	0.000000	0.008681	0.000000	0.000005	0.000000	0.000000	0.000000
20.857189	23.733632	11.117519	0.441312	-0.311614	3.175646	0.000000	-0.086711	0.000000	0.000005	-0.000000	0.000000	0.000000
21.406249	22.850721	11.691653	1.157210	-0.740224	3.102163	0.000000	-0.180565	0.000000	0.000005	-0.000000	0.000000	0.000000
21.955309	21.222133	12.762468	1.791369	-1.221559	2.977953	0.000000	-0.271216	0.000000	0.000005	-0.000000	0.000000	0.000000
22.504369	18.962905	14.406238	2.298994	-1.789902	2.805219	0.000000	-0.357056	0.000000	0.000005	-0.000001	0.000000	0.000000
22.950329	17.182538	15.881920	1.707311	-1.505138	2.663280	0.000000	-0.279847	0.000000	0.000005	-0.000000	0.000000	0.000000
23.391289	15.906111	17.058419	1.198327	-1.152749	2.556201	0.000000	-0.206279	0.000000	0.000005	-0.000000	0.000000	0.000000
23.832249	15.052819	17.899735	0.744091	-0.747910	2.481014	0.000000	-0.135060	0.000000	0.000004	-0.000000	0.000000	0.000000
24.273209	14.583680	18.367590	0.323850	-0.309042	2.436863	0.000000	-0.065380	0.000000	0.000004	-0.000000	0.000000	0.000000
24.715418	14.477373	18.440448	-0.046180	0.098598	2.423242	0.000000	-0.002387	0.000000	0.000004	0.000000	0.000000	0.000000
25.012741	14.510953	18.386658	-0.066761	0.082318	2.422532	0.000000	-0.002387	0.000000	0.000004	0.000000	0.000000	0.000000
25.346075	14.563151	18.337863	-0.089834	0.064066	2.421736	0.000000	-0.002387	0.000000	0.000004	0.000000	0.000000	0.000000
25.679408	14.630732	18.301237	-0.112908	0.045814	2.420941	0.000000	-0.002387	0.000000	0.000004	0.000000	0.000000	0.000000
26.013991	14.713737	18.277080	-0.016700	-0.120779	2.420118	0.000000	-0.022020	0.000000	0.000004	-0.000000	0.000000	0.000000
26.311314	14.729677	18.353808	-0.000793	-0.182291	2.413570	0.000000	-0.027939	0.000000	0.000004	-0.000000	0.000000	0.000000
26.752274	14.911872	18.315486	-0.413953	0.268866	2.416361	0.000000	0.040608	0.000000	0.000004	0.000000	0.000000	0.000000
27.193234	15.465372	17.883175	-0.846024	0.707789	2.449451	0.000000	0.109617	0.000000	0.000004	0.000000	0.000000	0.000000
27.634194	16.415464	17.076545	-1.316748	1.114509	2.513217	0.000000	0.179874	0.000000	0.000005	0.000000	0.000000	0.000000
28.075154	17.805555	15.932297	-1.847631	1.470519	2.608386	0.000000	0.252180	0.000000	0.000005	0.000000	0.000000	0.000000
28.521114	19.723310	14.485259	-2.467886	1.760535	2.737644	0.000000	0.327802	0.000000	0.000005	0.000001	0.000000	0.000000
29.070174	22.160788	12.872860	-1.945199	1.193452	2.894962	0.000000	0.244401	0.000000	0.000005	0.000000	0.000000	0.000000
29.619234	23.944984	11.833134	-1.285112	0.711375	3.005229	0.000000	0.156665	0.000000	0.000005	0.000000	0.000000	0.000000
30.168294	24.949873	11.292021	-0.534252	0.279967	3.066488	0.000000	0.066150	0.000000	0.000006	0.000000	0.000000	0.000000
30.717354	25.104474	11.210981	0.254345	-0.131498	3.077654	0.000000	-0.025539	0.000000	0.000006	-0.000000	0.000000	0.000000
31.015927	24.995437	11.280049	0.176438	-0.129118	3.072430	0.000000	-0.017498	0.000000	0.000005	-0.000000	0.000000	0.000000
31.349260	24.882396	11.376142	0.162687	-0.159161	3.066597	0.000000	-0.017498	0.000000	0.000005	-0.000000	0.000000	0.000000
31.682593	24.778521	11.492264	0.148936	-0.189205	3.060765	0.000000	-0.017498	0.000000	0.000005	-0.000000	0.000000	0.000000
32.017177	24.683477	11.628963	0.135134	-0.219361	3.054910	0.000000	-0.017498	0.000000	0.000005	-0.000000	0.000000	0.000000
32.314499	24.606767	11.767372	0.058578	-0.215414	3.049708	0.000000	-0.009530	0.000000	0.000005	-0.000000	0.000000	0.000000
32.863559	24.120896	12.243229	0.821097	-0.656376	3.019593	0.000000	-0.100006	0.000000	0.000005	-0.000000	0.000000	0.000000
33.412619	22.824737	13.225993	1.525617	-1.144091	2.940216	0.000000	-0.188708	0.000000	0.000005	-0.000000	0.000000	0.000000
33.961679	20.809843	14.785664	2.122375	-1.713298	2.812984	0.000000	-0.274063	0.000000	0.000005	-0.000001	0.000000	0.000000
34.510739	18.218536	17.033336	2.569219	-2.404538	2.640156	0.000000	-0.354556	0.000000	0.000004	-0.000001	0.000000	0.000000
34.956699	16.203782	19.043745	1.964758	-2.084686	2.498380	0.000000	-0.281626	0.000000	0.000004	-0.000001	0.000000	0.000000
35.397659	14.701476	20.706059	1.455066	-1.670731	2.389576	0.000000	-0.212332	0.000000	0.000004	-0.000001	0.000000	0.000000
35.838619	13.617775	21.968255	1.011852	-1.180758	2.310766	0.000000	-0.145455	0.000000	0.000004	-0.000000	0.000000	0.000000
36.279579	12.903168	22.772903	0.614867	-0.637062	2.261053	0.000000	-0.080236	0.000000	0.000003	-0.000000	0.000000	0.000000
36.721789	12.524315	23.083695	0.276579	-0.121041	2.239844	0.000000	-0.021423	0.000000	0.000003	-0.000000	0.000000	0.000000
37.019112	12.367447	23.159557	0.251024	-0.134110	2.233475	0.000000	-0.021423	0.000000	0.000003	-0.000000	0.000000	0.000000
37.352445	12.209648	23.253847	0.222373	-0.148761	2.226334	0.000000	-0.021423	0.000000	0.000003	-0.000000	0.000000	0.000000
37.685779	12.070950	23.357906	0.193722	-0.163413	2.219193	0.000000	-0.021423	0.000000	0.000003	-0.000000	0.000000	0.000000
38.020362	11.950939	23.472177	0.164964	-0.178120	2.212025	0.000000	-0.021423	0.000000	0.000003	-0.000000	0.000000	0.000000
38.317684	11.860443	23.581980	0.168493	-0.249017	2.205656	0.000000	-0.026831	0.000000	0.000003	-0.000000	0.000000	0.000000
38.758644	11.863107	23.540408	-0.174559	0.342936	2.207752	0.000000	0.036346	0.000000	0.000003	-0.000000	0.000000	0.000000
39.199604	12.170677	22.981693	-0.525586	0.919285	2.237771	0.000000	0.099938	0.000000	0.000003	-0.000000	0.000000	0.000000
39.640564	12.797202	21.931257	-0.900626	1.453807	2.296056	0.000000	0.164668	0.000000	0.000003	-0.000000	0.000000	0.000000
40.081524	13.771309	20.436894	-1.316812	1.922183	2.383270	0.000000	0.231273	0.000000	0.000003	0.000000	0.000000	0.000000
40.527484	15.155067	18.544028	-1.796985	2.304380	2.501879	0.000000	0.300918	0.000000	0.000003	0.000000	0.000000	0.000000
41.076544	16.921078	16.416996	-1.400402	1.592439	2.646571	0.000000	0.225360	0.000000	0.000003	0.000000	0.000000	0.000000
41.625604	18.194366	15.005262	-0.904902	0.993923	2.748617	0.000000	0.145805	0.000000	0.000003	-0.000000	0.000000	0.000000
42.174664	18.884990	14.208270	-0.345484	0.466202	2.806207	0.000000	0.063664	0.000000	0.000003	-0.000000	0.000000	0.000000
42.723724	18.944170	13.969253	0.238338	-0.028313	2.818320	0.000000	-0.019606	0.000000	0.000003	-0.000000	0.000000	0.000000
43.022297	18.836278	13.970747	0.172519	-0.013189	2.814665	0.000000	-0.012243	0.000000	0.000003	-0.000000	0.000000	0.000000
43.502297	18.683256	13.999903	0.146277	-0.047553	2.808789	0.000000	-0.012243	0.000000	0.000002	-0.000000	0.000000	0.000000
43.982297	18.555425	14.062048	0.120036	-0.081916	2.802913	0.000000	-0.012243	0.000000	0.000002	-0.000000	0.000000	0.000000
44.462297	18.452786	14.157182	0.093795	-0.116280	2.797036	0.000000	-0.012243	0.000000	0.000002	-0.000000	0.000000	0.000000
44.942297	18.375339	14.285305	0.067554	-0.150643	2.791160	0.000000	-0.012243	0.000000	0.000002	-0.000000	0.000000	0.000000
45.423547	18.323207	14.446701	-0.049539	-0.113518	2.785286	0.000000	0.001557	0.000000	0.000002	-0.000000	0.000000	0.000000
45.720870	18.357501	14.520402	-0.113769	-0.096426	2.785749	0.000000	0.008836	0.000000	0.000002	-0.000000	0.000000	0.000000
46.269930	18.173324	14.907184	0.447225	-0.612177	2.768029	0.000000	-0.073288	0.000000	0.000002	-0.000000	0.000000	0.000000
46.818990	17.386887	15.880800	0.976630	-1.171532	2.705508	0.000000	-0.154112	0.000000	0.000002	-0.000000	0.000000	0.000000
47.368050	16.053740	17.510599	1.437050	-1.814333	2.599297	0.000000	-0.232203	0.000000	0.000001	-0.000000	0.000000	0.000000
47.917110	14.268050	19.912668	1.795964	-2.586365	2.451279	0.000000	-0.306175	0.000000	0.000001	-0.000000	0.000000	0.000000
48.363070	12.878341	22.048393	1.331296	-2.182554	2.330029	0.000000	-0.237877	0.000000	0.000001	-0.000000	0.000000	0.000000
48.804030	11.884433	23.758445	0.931218	-1.680708	2.239594	0.000000	-0.172686	0.000000	0.000001	-0.000000	0.000000	0.000000
49.244990	11.223339	24.990368	0.573685	-1.102392	2.177445	0.000000	-0.109462	0.000000	0.000001	-0.000000	0.000000	0.000000
49.685950	10.864855	25.688113	0.242362	-0.473918	2.142875	0.000000	-0.047484	0.000000	0.000000	-0.000000	0.000000	0.000000
50.128160	10.792731	25.819650	-0.051538	0.112753	2.135500	0.000000	0.008716	0.000000	0.000000	-0.000000	0.000000	0.000000
50.425482	10.831590	25.756069	-0.079159	0.101091	2.138092	0.000000	0.008716	0.000000	0.000000	-0.000000	0.000000	0.000000
50.758816	10.894686	25.693034	-0.110126	0.088017	2.140998	0.000000	0.008716	0.000000	0.000000	-0.000000	0.000000	0.000000
51.092149	10.978425	25.638714	-0.141093	0.074942	2.143903	0.000000	0.008716	0.000000	-0.000000	-0.000000	0.000000	0.000000
51.426732	11.083015	25.593475	-0.082264	-0.145808	2.146798	0.000000	-0.008700	0.000000	-0.000000	-0.000000	0.000000	0.000000
51.724055	11.139963	25.683706	-0.081954	-0.220656	2.144211	0.000000	-0.013958	0.000000	-0.000000	-0.000000	0.000000	0.000000
52.165015	11.357666	25.592590	-0.413621	0.426500	2.151645	0.000000	0.047704	0.000000	-0.000000	-0.000000	0.000000	0.000000
52.605975	11.875069	24.937144	-0.764186	1.054250	2.186363	0.000000	0.109910	0.000000	-0.000001	-0.000000	0.000000	0.000000
53.046935	12.715810	23.747191	-1.149664	1.634033	2.248761	0.000000	0.173368	0.000000	-0.000001	-0.000000	0.000000	0.000000
53.487895	13.918302	22.076871	-1.587667	2.139469	2.339549	0.000000	0.238800	0.000000	-0.000001	-0.000000	0.000000	0.000000
53.933855	15.558091	19.977207	-2.102441	2.548896	2.461267	0.000000	0.307351	0.000000	-0.000001	-0.000000	0.000000	0.000000
54.482915	17.669228	17.614622	-1.719802	1.779468	2.609841	0.000000	0.233046	0.000000	-0.000001	-0.000000	0.000000	0.000000
55.031975	19.290583	16.022818	-1.215684	1.136788	2.716421	0.000000	0.154608	0.000000	-0.000002	-0.000000	0.000000	0.000000
55.581035	20.307632	15.088417	-0.625696	0.575079	2.779115	0.000000	0.073427	0.000000	-0.000002	-0.000000	0.000000	0.000000
56.130095	20.648535	14.744861	0.008487	0.054331	2.796814	0.000000	-0.009056	0.000000	-0.000002	-0.000000	0.000000	0.000000
56.428668	20.680010	14.695510	-0.059954	0.072433	2.796292	0.000000	-0.001748	0.000000	-0.000002	-0.000000	0.000000	0.000000
56.762001	20.725371	14.654822	-0.076131	0.049632	2.795709	0.000000	-0.001748	0.000000	-0.000002	-0.000000	0.000000	0.000000
57.095334	20.781517	14.629334	-0.092307	0.026830	2.795126	0.000000	-0.001748	0.000000	-0.000002	-0.000000	0.000000	0.000000
57.429918	20.848719	14.619038	-0.108544	0.003943	2.794542	0.000000	-0.001748	0.000000	-0.000002	-0.000000	0.000000	0.000000
57.727240	20.917554	14.622741	-0.177628	0.021812	2.794022	0.000000	0.005552	0.000000	-0.000002	-0.000000	0.000000	0.000000
58.276300	20.755709	14.879640	0.470651	-0.492462	2.774431	0.000000	-0.076810	0.000000	-0.000002	-0.000000	0.000000	0.000000
58.825360	19.896097	15.717105	1.085687	-1.041813	2.709926	0.000000	-0.157809	0.000000	-0.000002	-0.000000	0.000000	0.000000
59.374420	18.399438	17.194788	1.624034	-1.665369	2.601652	0.000000	-0.236009	0.000000	-0.000002	-0.000000	0.000000	0.000000
59.923480	16.371449	19.417940	2.047668	-2.407546	2.451529	0.000000	-0.310023	0.000000	-0.000002	0.000000	0.000000	0.000000
60.369440	14.784089	21.393951	1.524358	-2.004668	2.328561	0.000000	-0.241742	0.000000	-0.000002	0.000000	0.000000	0.000000
60.810400	13.642252	22.950563	1.074901	-1.511951	2.236410	0.000000	-0.176610	0.000000	-0.000002	-0.000000	0.000000	0.000000
61.251360	12.873729	24.040526	0.674553	-0.950440	2.172509	0.000000	-0.113491	0.000000	-0.000003	-0.000000	0.000000	0.000000
61.692320	12.443408	24.614249	0.305023	-0.345686	2.136131	0.000000	-0.051663	0.000000	-0.000003	-0.000000	0.000000	0.000000
62.134530	12.331680	24.645092	-0.020431	0.214304	2.126866	0.000000	0.004360	0.000000	-0.000003	-0.000000	0.000000	0.000000
62.431853	12.351000	24.521409	-0.044551	0.201686	2.128162	0.000000	0.004360	0.000000	-0.000003	-0.000000	0.000000	0.000000
62.765186	12.389715	24.391668	-0.071593	0.187539	2.129615	0.000000	0.004360	0.000000	-0.000003	-0.000000	0.000000	0.000000
63.098520	12.446458	24.271357	-0.098635	0.173393	2.131069	0.000000	0.004360	0.000000	-0.000003	-0.000000	0.000000	0.000000
63.433103	12.521543	24.160080	-0.125778	0.159193	2.132527	0.000000	0.004360	0.000000	-0.000003	-0.000000	0.000000	0.000000
63.730426	12.603508	24.069168	-0.118990	0.087548	2.133824	0.000000	-0.000873	0.000000	-0.000003	-0.000000	0.000000	0.000000
64.171386	12.868905	23.726872	-0.485156	0.685751	2.146979	0.000000	0.060595	0.000000	-0.000003	-0.000000	0.000000	0.000000
64.612346	13.465749	22.868804	-0.873488	1.252752	2.187365	0.000000	0.122754	0.000000	-0.000003	-0.000000	0.000000	0.000000
65.053306	14.421306	21.534008	-1.301726	1.762754	2.255443	0.000000	0.186310	0.000000	-0.000004	-0.000000	0.000000	0.000000
65.494266	15.779234	19.783214	-1.789437	2.192552	2.351988	0.000000	0.251989	0.000000	-0.000004	-0.000001	0.000000	0.000000
65.940226	17.624738	17.671301	-2.363595	2.523347	2.479671	0.000000	0.320939	0.000000	-0.000004	-0.000001	0.000000	0.000000
66.489286	19.990362	15.308668	-1.919399	1.805104	2.635521	0.000000	0.245921	0.000000	-0.000004	-0.000001	0.000000	0.000000
67.038346	21.790418	13.659942	-1.339626	1.215435	2.748921	0.000000	0.166540	0.000000	-0.000005	-0.000000	0.000000	0.000000
67.587406	22.897758	12.607690	-0.665229	0.712339	2.817859	0.000000	0.084205	0.000000	-0.000005	-0.000000	0.000000	0.000000
68.136466	23.234166	12.076960	0.056157	0.259981	2.841114	0.000000	0.000377	0.000000	-0.000005	-0.000000	0.000000	0.000000
68.435038	23.240721	11.910879	-0.017403	0.264714	2.843443	0.000000	0.007800	0.000000	-0.000005	-0.000000	0.000000	0.000000
68.768372	23.257105	11.744385	-0.031750	0.234767	2.846043	0.000000	0.007800	0.000000	-0.000005	-0.000000	0.000000	0.000000
69.101705	23.283054	11.597856	-0.046097	0.204820	2.848643	0.000000	0.007800	0.000000	-0.000005	-0.000000	0.000000	0.000000
69.436288	23.318719	11.470854	-0.060497	0.174762	2.851253	0.000000	0.007800	0.000000	-0.000005	-0.000000	0.000000	0.000000
69.733611	23.358498	11.374875	-0.134329	0.177772	2.853572	0.000000	0.015257	0.000000	-0.000005	-0.000000	0.000000	0.000000
70.282671	23.104844	11.407403	0.593572	-0.237365	2.838766	0.000000	-0.069112	0.000000	-0.000005	0.000000	0.000000	0.000000
