#ParticleID	Turn	x[m]	xp	y[m]	yp	z[m]	dE[GeV]# s	beta_x	beta_y	alpha_x	alpha_y	D_x	D_y	D_px	D_py	orbit_x	orbit_px	orbit_y	orbit_py
0.300000	11.815924	25.010361	-0.011240	-0.027373	2.618046	0.000000	0.000039	0.000000	-0.000002	0.000001	0.000000	0.000000
0.601250	11.830378	25.030485	-0.036738	-0.039427	2.618058	0.000000	0.000039	0.000000	-0.000001	0.000001	0.000000	0.000000
0.898573	11.859707	25.057467	-0.032821	-0.112772	2.618069	0.000000	-0.006382	0.000000	-0.000001	0.000001	0.000000	0.000000
1.339533	12.040807	24.878973	-0.379431	0.516018	2.631547	0.000000	0.067574	0.000000	-0.000000	0.000001	0.000000	0.000000
1.780493	12.534049	24.154210	-0.743377	1.121330	2.677776	0.000000	0.142300	0.000000	0.000000	0.000001	0.000000	0.000000
2.221453	13.361970	22.916154	-1.141286	1.675623	2.757281	0.000000	0.218647	0.000000	0.000001	0.000001	0.000000	0.000000
2.662413	14.562393	21.221136	-1.591336	2.153676	2.870969	0.000000	0.297484	0.000000	0.000001	0.000001	0.000000	0.000000
3.108373	16.210915	19.121420	-2.118382	2.534871	3.021996	0.000000	0.380198	0.000000	0.000002	0.000001	0.000000	0.000000
3.657433	18.324862	16.763141	-1.708947	1.785603	3.205475	0.000000	0.287160	0.000000	0.000002	0.000001	0.000000	0.000000
4.206493	19.919851	15.153398	-1.178801	1.163519	3.336395	0.000000	0.189028	0.000000	0.000003	0.000001	0.000000	0.000000
4.755553	20.883220	14.177533	-0.565390	0.624310	3.412434	0.000000	0.087544	0.000000	0.000003	0.000001	0.000000	0.000000
5.304613	21.146921	13.766036	0.087957	0.129570	3.432242	0.000000	-0.015494	0.000000	0.000004	0.000001	0.000000	0.000000
5.603185	21.131610	13.673840	0.018572	0.143253	3.430294	0.000000	-0.006526	0.000000	0.000004	0.000001	0.000000	0.000000
5.936519	21.124489	13.586630	0.002792	0.118376	3.428118	0.000000	-0.006526	0.000000	0.000004	0.000001	0.000000	0.000000
6.269852	21.127888	13.516005	-0.012987	0.093498	3.425942	0.000000	-0.006526	0.000000	0.000005	0.000001	0.000000	0.000000
6.604435	21.141878	13.461795	-0.028826	0.068527	3.423758	0.000000	-0.006526	0.000000	0.000005	0.000001	0.000000	0.000000
6.901758	21.163204	13.427643	-0.098194	0.081419	3.421818	0.000000	0.002414	0.000000	0.000005	0.000001	0.000000	0.000000
7.450818	20.910341	13.599015	0.556006	-0.395381	3.394940	0.000000	-0.100171	0.000000	0.000006	0.000001	0.000000	0.000000
7.999878	19.956501	14.306271	1.170933	-0.900344	3.312143	0.000000	-0.200980	0.000000	0.000006	0.000000	0.000000	0.000000
8.548938	18.369060	15.599787	1.703151	-1.469436	3.174895	0.000000	-0.298223	0.000000	0.000006	0.000000	0.000000	0.000000
9.097998	16.260145	17.571698	2.115067	-2.143193	2.985630	0.000000	-0.390177	0.000000	0.000006	0.000000	0.000000	0.000000
9.543958	14.614796	19.328776	1.587505	-1.780144	2.829934	0.000000	-0.308466	0.000000	0.000006	0.000000	0.000000	0.000000
9.984918	13.418044	20.708709	1.136761	-1.337333	2.711160	0.000000	-0.230753	0.000000	0.000007	0.000000	0.000000	0.000000
10.425878	12.594494	21.669693	0.737952	-0.833674	2.626043	0.000000	-0.155668	0.000000	0.000007	0.000001	0.000000	0.000000
10.866838	12.106523	22.168003	0.372858	-0.292084	2.573613	0.000000	-0.082355	0.000000	0.000007	0.000001	0.000000	0.000000
11.309048	11.931699	22.180446	0.053953	0.208347	2.553253	0.000000	-0.016242	0.000000	0.000008	0.000001	0.000000	0.000000
11.606371	11.907047	22.060712	0.028962	0.194360	2.548424	0.000000	-0.016242	0.000000	0.000008	0.000001	0.000000	0.000000
12.086371	11.898610	21.884965	-0.011385	0.171780	2.540627	0.000000	-0.016242	0.000000	0.000008	0.000001	0.000000	0.000000
12.566371	11.928905	21.730894	-0.051731	0.149200	2.532831	0.000000	-0.016242	0.000000	0.000009	0.000001	0.000000	0.000000
13.046371	11.997933	21.598501	-0.092077	0.126620	2.525034	0.000000	-0.016242	0.000000	0.000009	0.000001	0.000000	0.000000
13.526371	12.105693	21.487784	-0.132423	0.104040	2.517238	0.000000	-0.016242	0.000000	0.000010	0.000001	0.000000	0.000000
14.007621	12.252617	21.398541	-0.172874	0.081401	2.509421	0.000000	-0.016242	0.000000	0.000010	0.000001	0.000000	0.000000
14.304943	12.362846	21.354294	-0.167551	0.015053	2.504591	0.000000	-0.022383	0.000000	0.000010	0.000001	0.000000	0.000000
14.745903	12.669172	21.107292	-0.529765	0.542962	2.510354	0.000000	0.048548	0.000000	0.000011	0.000001	0.000000	0.000000
15.186863	13.304368	20.403872	-0.916183	1.046168	2.547487	0.000000	0.120032	0.000000	0.000011	0.000001	0.000000	0.000000
15.627823	14.297453	19.276040	-1.344458	1.501773	2.616413	0.000000	0.192884	0.000000	0.000012	0.000002	0.000000	0.000000
16.068783	15.693798	17.775111	-1.834158	1.889049	2.717916	0.000000	0.267932	0.000000	0.000013	0.000002	0.000000	0.000000
16.514743	17.580855	15.947873	-2.412413	2.191120	2.854848	0.000000	0.346494	0.000000	0.000014	0.000002	0.000000	0.000000
17.063803	20.004484	13.907572	-1.975597	1.546802	3.021359	0.000000	0.259147	0.000000	0.000015	0.000002	0.000000	0.000000
17.612863	21.868504	12.510521	-1.399234	1.012659	3.138576	0.000000	0.167202	0.000000	0.000016	0.000001	0.000000	0.000000
18.161923	23.041250	11.657210	-0.724037	0.550645	3.204421	0.000000	0.072292	0.000000	0.000017	0.000001	0.000000	0.000000
18.710983	23.439885	11.286859	0.002303	0.127853	3.217725	0.000000	-0.023900	0.000000	0.000017	0.000000	0.000000	0.000000
19.009556	23.478893	11.200999	-0.071714	0.130231	3.213099	0.000000	-0.015494	0.000000	0.000017	0.000000	0.000000	0.000000
19.342889	23.531459	11.124266	-0.085984	0.099967	3.207935	0.000000	-0.015494	0.000000	0.000017	0.000000	0.000000	0.000000
19.676223	23.593538	11.067709	-0.100255	0.069703	3.202770	0.000000	-0.015494	0.000000	0.000018	0.000000	0.000000	0.000000
20.010806	23.665711	11.031093	-0.231831	0.093981	3.197606	0.000000	0.000349	0.000000	0.000018	0.000001	0.000000	0.000000
20.308129	23.807504	10.983293	-0.307265	0.095483	3.197709	0.000000	0.008703	0.000000	0.000018	0.000001	0.000000	0.000000
20.857189	23.734299	11.100641	0.439804	-0.310470	3.176263	0.000000	-0.086709	0.000000	0.000018	-0.000000	0.000000	0.000000
21.406249	22.852995	11.673228	1.155808	-0.738536	3.102775	0.000000	-0.180583	0.000000	0.000018	-0.000001	0.000000	0.000000
21.955309	21.225842	12.741839	1.790172	-1.219207	2.978550	0.000000	-0.271253	0.000000	0.000017	-0.000001	0.000000	0.000000
22.504369	18.967775	14.382588	2.298086	-1.786719	2.805791	0.000000	-0.357113	0.000000	0.000017	-0.000002	0.000000	0.000000
22.950329	17.188220	15.855663	1.706391	-1.502502	2.663831	0.000000	-0.279888	0.000000	0.000016	-0.000001	0.000000	0.000000
23.391289	15.912623	17.030122	1.197353	-1.150777	2.556737	0.000000	-0.206307	0.000000	0.000015	-0.000001	0.000000	0.000000
23.832249	15.060231	17.870027	0.743018	-0.746693	2.481541	0.000000	-0.135074	0.000000	0.000015	-0.000000	0.000000	0.000000
24.273209	14.592098	18.337163	0.322630	-0.308635	2.437387	0.000000	-0.065381	0.000000	0.000015	-0.000000	0.000000	0.000000
24.715418	14.486957	18.410028	-0.047583	0.098256	2.423768	0.000000	-0.002374	0.000000	0.000015	0.000000	0.000000	0.000000
25.012741	14.521368	18.356449	-0.068153	0.081950	2.423062	0.000000	-0.002374	0.000000	0.000015	0.000000	0.000000	0.000000
25.346075	14.574490	18.307909	-0.091215	0.063669	2.422271	0.000000	-0.002374	0.000000	0.000015	0.000000	0.000000	0.000000
25.679408	14.642987	18.271557	-0.114276	0.045388	2.421479	0.000000	-0.002374	0.000000	0.000015	0.000000	0.000000	0.000000
26.013991	14.726903	18.247694	-0.017949	-0.120995	2.420660	0.000000	-0.022012	0.000000	0.000015	0.000000	0.000000	0.000000
26.311314	14.743581	18.324559	-0.001995	-0.182458	2.414115	0.000000	-0.027932	0.000000	0.000015	0.000000	0.000000	0.000000
26.752274	14.926990	18.286735	-0.415515	0.267910	2.416912	0.000000	0.040629	0.000000	0.000015	0.000000	0.000000	0.000000
27.193234	15.482053	17.855600	-0.848019	0.706088	2.450014	0.000000	0.109652	0.000000	0.000016	0.000001	0.000000	0.000000
27.634194	16.434127	17.050771	-1.319266	1.112140	2.513799	0.000000	0.179925	0.000000	0.000016	0.000001	0.000000	0.000000
28.075154	17.826712	15.908867	-1.850787	1.467591	2.608993	0.000000	0.252246	0.000000	0.000017	0.000002	0.000000	0.000000
28.521114	19.747623	14.464644	-2.471831	1.757179	2.738284	0.000000	0.327884	0.000000	0.000018	0.000002	0.000000	0.000000
29.070174	22.189116	12.855481	-1.948523	1.190878	2.895640	0.000000	0.244462	0.000000	0.000019	0.000002	0.000000	0.000000
29.619234	23.976513	11.818237	-1.287580	0.709400	3.005934	0.000000	0.156703	0.000000	0.000020	0.000001	0.000000	0.000000
30.168294	24.983558	11.279031	-0.535689	0.278451	3.067208	0.000000	0.066165	0.000000	0.000020	0.000000	0.000000	0.000000
30.717354	25.139121	11.199455	0.254041	-0.132665	3.078375	0.000000	-0.025547	0.000000	0.000020	-0.000000	0.000000	0.000000
31.015927	25.030310	11.269250	0.176070	-0.130352	3.073149	0.000000	-0.017505	0.000000	0.000020	-0.000000	0.000000	0.000000
31.349260	24.917507	11.366178	0.162339	-0.160434	3.067314	0.000000	-0.017505	0.000000	0.000020	-0.000000	0.000000	0.000000
31.682593	24.813857	11.483161	0.148609	-0.190515	3.061479	0.000000	-0.017505	0.000000	0.000020	-0.000000	0.000000	0.000000
32.017177	24.719024	11.620750	0.134828	-0.220710	3.055622	0.000000	-0.017505	0.000000	0.000020	-0.000000	0.000000	0.000000
32.314499	24.642490	11.759972	0.058205	-0.216820	3.050418	0.000000	-0.009536	0.000000	0.000019	-0.000000	0.000000	0.000000
32.863559	24.156375	12.237292	0.821912	-0.657651	3.020293	0.000000	-0.100035	0.000000	0.000019	-0.000001	0.000000	0.000000
33.412619	22.858689	13.221425	1.527564	-1.145326	2.940894	0.000000	-0.188759	0.000000	0.000019	-0.000001	0.000000	0.000000
33.961679	20.841095	14.782471	2.125315	-1.714579	2.813629	0.000000	-0.274136	0.000000	0.000018	-0.000002	0.000000	0.000000
34.510739	18.246105	17.031617	2.572945	-2.405958	2.640756	0.000000	-0.354650	0.000000	0.000016	-0.000003	0.000000	0.000000
34.956699	16.228405	19.043390	1.967660	-2.086313	2.498942	0.000000	-0.281704	0.000000	0.000015	-0.000002	0.000000	0.000000
35.397659	14.723850	20.707203	1.457284	-1.672487	2.390108	0.000000	-0.212396	0.000000	0.000014	-0.000002	0.000000	0.000000
35.838619	13.638456	21.970976	1.013487	-1.182565	2.311273	0.000000	-0.145506	0.000000	0.000014	-0.000001	0.000000	0.000000
36.279579	12.922636	22.777210	0.615993	-0.638837	2.261541	0.000000	-0.080274	0.000000	0.000013	-0.000001	0.000000	0.000000
36.721789	12.542992	23.089528	0.277293	-0.122712	2.240318	0.000000	-0.021449	0.000000	0.000013	-0.000001	0.000000	0.000000
37.019112	12.385691	23.166384	0.251766	-0.135783	2.233941	0.000000	-0.021449	0.000000	0.000012	-0.000001	0.000000	0.000000
37.352445	12.227386	23.261791	0.223147	-0.150437	2.226792	0.000000	-0.021449	0.000000	0.000012	-0.000001	0.000000	0.000000
37.685779	12.088161	23.366967	0.194528	-0.165091	2.219643	0.000000	-0.021449	0.000000	0.000012	-0.000001	0.000000	0.000000
38.020362	11.967601	23.482362	0.165802	-0.179800	2.212467	0.000000	-0.021449	0.000000	0.000012	-0.000001	0.000000	0.000000
38.317684	11.876597	23.593165	0.169397	-0.250722	2.206090	0.000000	-0.026858	0.000000	0.000011	-0.000001	0.000000	0.000000
38.758644	11.878625	23.552960	-0.174013	0.341550	2.208177	0.000000	0.036331	0.000000	0.000011	-0.000001	0.000000	0.000000
39.199604	12.185861	22.995302	-0.525374	0.918282	2.238192	0.000000	0.099933	0.000000	0.000011	-0.000000	0.000000	0.000000
39.640564	12.812342	21.945564	-0.900737	1.453234	2.296477	0.000000	0.164674	0.000000	0.000011	0.000000	0.000000	0.000000
40.081524	13.786691	20.451507	-1.317253	1.922064	2.383696	0.000000	0.231290	0.000000	0.000011	0.000000	0.000000	0.000000
40.527484	15.170997	18.558540	-1.797777	2.304724	2.502314	0.000000	0.300946	0.000000	0.000011	0.000001	0.000000	0.000000
41.076544	16.937555	16.431330	-1.400599	1.592422	2.647018	0.000000	0.225374	0.000000	0.000011	0.000000	0.000000	0.000000
41.625604	18.210724	15.019811	-0.904490	0.993544	2.749068	0.000000	0.145805	0.000000	0.000011	-0.000000	0.000000	0.000000
42.174664	18.900574	14.223445	-0.344492	0.465434	2.806654	0.000000	0.063649	0.000000	0.000011	-0.000001	0.000000	0.000000
42.723724	18.958377	13.985510	0.239838	-0.029524	2.818755	0.000000	-0.019636	0.000000	0.000011	-0.000001	0.000000	0.000000
43.022297	18.849608	13.987696	0.173989	-0.014336	2.815091	0.000000	-0.012271	0.000000	0.000011	-0.000001	0.000000	0.000000
43.502297	18.695172	14.017933	0.147753	-0.048659	2.809201	0.000000	-0.012271	0.000000	0.000010	-0.000001	0.000000	0.000000
43.982297	18.565922	14.081120	0.121518	-0.082982	2.803312	0.000000	-0.012271	0.000000	0.000010	-0.000001	0.000000	0.000000
44.462297	18.461858	14.177257	0.095282	-0.117304	2.797422	0.000000	-0.012271	0.000000	0.000009	-0.000001	0.000000	0.000000
44.942297	18.382980	14.306345	0.069047	-0.151627	2.791532	0.000000	-0.012271	0.000000	0.000009	-0.000001	0.000000	0.000000
45.423547	18.329408	14.468668	-0.048071	-0.114353	2.785644	0.000000	0.001530	0.000000	0.000009	-0.000001	0.000000	0.000000
45.720870	18.362828	14.542857	-0.112305	-0.097176	2.786099	0.000000	0.008809	0.000000	0.000008	-0.000001	0.000000	0.000000
46.269930	18.176957	14.930844	0.448826	-0.613633	2.768362	0.000000	-0.073326	0.000000	0.000008	-0.000001	0.000000	0.000000
46.818990	17.388737	15.906491	0.978255	-1.173797	2.705819	0.000000	-0.154160	0.000000	0.000007	-0.000001	0.000000	0.000000
47.368050	16.053845	17.539292	1.438584	-1.817568	2.599579	0.000000	-0.232261	0.000000	0.000006	-0.000001	0.000000	0.000000
47.917110	14.266570	19.945548	1.797300	-2.590801	2.451527	0.000000	-0.306241	0.000000	0.000006	-0.000002	0.000000	0.000000
48.363070	12.875716	22.084922	1.332536	-2.186264	2.330249	0.000000	-0.237937	0.000000	0.000005	-0.000002	0.000000	0.000000
48.804030	11.880735	23.797864	0.932421	-1.683528	2.239790	0.000000	-0.172741	0.000000	0.000004	-0.000001	0.000000	0.000000
49.244990	11.218576	25.031832	0.574906	-1.104192	2.177618	0.000000	-0.109512	0.000000	0.000004	-0.000001	0.000000	0.000000
49.685950	10.858987	25.730683	0.243657	-0.474617	2.143027	0.000000	-0.047530	0.000000	0.000003	-0.000001	0.000000	0.000000
50.128160	10.785663	25.862336	-0.050128	0.113084	2.135634	0.000000	0.008674	0.000000	0.000002	-0.000001	0.000000	0.000000
50.425482	10.823688	25.798553	-0.077764	0.101440	2.138213	0.000000	0.008674	0.000000	0.000002	-0.000001	0.000000	0.000000
50.758816	10.885858	25.735278	-0.108746	0.088387	2.141105	0.000000	0.008674	0.000000	0.000002	-0.000001	0.000000	0.000000
51.092149	10.968683	25.680704	-0.139729	0.075333	2.143996	0.000000	0.008674	0.000000	0.000001	-0.000001	0.000000	0.000000
51.426732	11.072366	25.635197	-0.081002	-0.145734	2.146877	0.000000	-0.008743	0.000000	0.000001	-0.000001	0.000000	0.000000
51.724055	11.128570	25.725379	-0.080741	-0.220665	2.144278	0.000000	-0.014001	0.000000	0.000001	-0.000001	0.000000	0.000000
52.165015	11.345079	25.633785	-0.412117	0.427591	2.151693	0.000000	0.047663	0.000000	0.000000	-0.000001	0.000000	0.000000
52.605975	11.861003	24.976909	-0.762323	1.056391	2.186394	0.000000	0.109870	0.000000	-0.000000	-0.000001	0.000000	0.000000
53.046935	12.699912	23.784638	-1.147356	1.637127	2.248774	0.000000	0.173328	0.000000	-0.000001	-0.000001	0.000000	0.000000
53.487895	13.900134	22.111219	-1.584809	2.143375	2.339545	0.000000	0.238760	0.000000	-0.000002	-0.000001	0.000000	0.000000
53.933855	15.537078	20.007772	-2.098897	2.553438	2.461245	0.000000	0.307310	0.000000	-0.000002	-0.000001	0.000000	0.000000
54.482915	17.644594	17.640861	-1.716790	1.782850	2.609798	0.000000	0.233007	0.000000	-0.000003	-0.000001	0.000000	0.000000
55.031975	19.263034	16.045868	-1.213418	1.139250	2.716357	0.000000	0.154570	0.000000	-0.000003	-0.000001	0.000000	0.000000
55.581035	20.278080	15.109184	-0.624336	0.576797	2.779032	0.000000	0.073392	0.000000	-0.000004	-0.000001	0.000000	0.000000
56.130095	20.618032	14.764092	0.008846	0.055428	2.796712	0.000000	-0.009088	0.000000	-0.000005	-0.000001	0.000000	0.000000
56.428668	20.649252	14.714048	-0.059537	0.073604	2.796181	0.000000	-0.001780	0.000000	-0.000005	-0.000001	0.000000	0.000000
56.762001	20.694344	14.672571	-0.075737	0.050827	2.795588	0.000000	-0.001780	0.000000	-0.000005	-0.000001	0.000000	0.000000
57.095334	20.750235	14.646279	-0.091937	0.028050	2.794995	0.000000	-0.001780	0.000000	-0.000005	-0.000001	0.000000	0.000000
57.429918	20.817197	14.635159	-0.108198	0.005188	2.794399	0.000000	-0.001780	0.000000	-0.000006	-0.000001	0.000000	0.000000
57.727240	20.885832	14.638114	-0.177221	0.023120	2.793870	0.000000	0.005520	0.000000	-0.000006	-0.000001	0.000000	0.000000
58.276300	20.724126	14.893813	0.469993	-0.491571	2.774263	0.000000	-0.076837	0.000000	-0.000006	-0.000001	0.000000	0.000000
58.825360	19.865804	15.730498	1.084009	-1.041275	2.709745	0.000000	-0.157831	0.000000	-0.000007	-0.000000	0.000000	0.000000
59.374420	18.371496	17.207766	1.621456	-1.665147	2.601461	0.000000	-0.236025	0.000000	-0.000007	-0.000000	0.000000	0.000000
59.923480	16.346751	19.430839	2.044372	-2.407624	2.451331	0.000000	-0.310033	0.000000	-0.000007	-0.000000	0.000000	0.000000
60.369440	14.761999	21.406728	1.521786	-2.004316	2.328358	0.000000	-0.241756	0.000000	-0.000007	-0.000000	0.000000	0.000000
60.810400	13.622156	22.962847	1.072931	-1.511188	2.236200	0.000000	-0.176630	0.000000	-0.000007	-0.000000	0.000000	0.000000
61.251360	12.855138	24.051969	0.673095	-0.949303	2.172290	0.000000	-0.113516	0.000000	-0.000007	-0.000001	0.000000	0.000000
61.692320	12.425902	24.624542	0.304011	-0.344224	2.135899	0.000000	-0.051694	0.000000	-0.000008	-0.000001	0.000000	0.000000
62.134530	12.314889	24.653972	-0.021083	0.215998	2.126619	0.000000	0.004323	0.000000	-0.000008	-0.000001	0.000000	0.000000
62.431853	12.334607	24.529283	-0.045237	0.203376	2.127904	0.000000	0.004323	0.000000	-0.000008	-0.000001	0.000000	0.000000
62.765186	12.373792	24.398416	-0.072317	0.189225	2.129346	0.000000	0.004323	0.000000	-0.000009	-0.000001	0.000000	0.000000
63.098520	12.431030	24.276983	-0.099396	0.175073	2.130787	0.000000	0.004323	0.000000	-0.000009	-0.000001	0.000000	0.000000
63.433103	12.506637	24.164583	-0.126577	0.160869	2.132233	0.000000	0.004323	0.000000	-0.000009	-0.000001	0.000000	0.000000
63.730426	12.589087	24.072676	-0.119857	0.089208	2.133519	0.000000	-0.000910	0.000000	-0.000010	-0.000001	0.000000	0.000000
64.171386	12.855110	23.728888	-0.485716	0.687460	2.146656	0.000000	0.060550	0.000000	-0.000010	-0.000001	0.000000	0.000000
64.612346	13.452321	22.869321	-0.873765	1.254433	2.187022	0.000000	0.122700	0.000000	-0.000011	-0.000001	0.000000	0.000000
65.053306	14.408004	21.533082	-1.301735	1.764330	2.255075	0.000000	0.186248	0.000000	-0.000011	-0.000002	0.000000	0.000000
65.494266	15.765821	19.780971	-1.789177	2.193952	2.351590	0.000000	0.251917	0.000000	-0.000012	-0.000002	0.000000	0.000000
65.940226	17.610969	17.667914	-2.363054	2.524504	2.479239	0.000000	0.320856	0.000000	-0.000013	-0.000002	0.000000	0.000000
66.489286	19.976291	15.304059	-1.919397	1.806185	2.635048	0.000000	0.245852	0.000000	-0.000014	-0.000002	0.000000	0.000000
67.038346	21.776642	13.654153	-1.340163	1.216517	2.748415	0.000000	0.166487	0.000000	-0.000015	-0.000001	0.000000	0.000000
67.587406	22.884852	12.600677	-0.666267	0.713499	2.817330	0.000000	0.084169	0.000000	-0.000016	-0.000001	0.000000	0.000000
68.136466	23.222643	12.068595	0.054690	0.261301	2.840570	0.000000	0.000358	0.000000	-0.000016	-0.000000	0.000000	0.000000
68.435038	23.230062	11.901748	-0.018852	0.265977	2.842894	0.000000	0.007781	0.000000	-0.000016	-0.000000	0.000000	0.000000
68.768372	23.247415	11.734425	-0.033206	0.235989	2.845488	0.000000	0.007781	0.000000	-0.000017	-0.000000	0.000000	0.000000
69.101705	23.274337	11.587096	-0.047560	0.206000	2.848081	0.000000	0.007781	0.000000	-0.000017	-0.000000	0.000000	0.000000
69.436288	23.310983	11.459318	-0.061969	0.175900	2.850685	0.000000	0.007781	0.000000	-0.000017	-0.000000	0.000000	0.000000
69.733611	23.351639	11.362673	-0.135794	0.178844	2.852999	0.000000	0.015237	0.000000	-0.000017	-0.000001	0.000000	0.000000
70.282671	23.099707	11.393833	0.591922	-0.235930	2.838186	0.000000	-0.069113	0.000000	-0.000017	0.000000	0.000000	0.000000
