#ParticleID	Turn	x[m]	xp	y[m]	yp	z[m]	dE[GeV]# s	beta_x	beta_y	alpha_x	alpha_y	D_x	D_y	D_px	D_py	orbit_x	orbit_px	orbit_y	orbit_py
0.300000	11.833937	24.941166	-0.013647	-0.027784	2.618337	0.000000	-0.000073	0.000000	-0.000001	0.000000	0.000000	0.000000
0.601250	11.849830	24.961547	-0.039108	-0.039871	2.618315	0.000000	-0.000073	0.000000	-0.000001	0.000000	0.000000	0.000000
0.898573	11.880556	24.988803	-0.035102	-0.113082	2.618294	0.000000	-0.006494	0.000000	-0.000001	0.000000	0.000000	0.000000
1.339533	12.063895	24.811383	-0.382247	0.513901	2.631724	0.000000	0.067468	0.000000	-0.000001	0.000000	0.000000	0.000000
1.780493	12.559902	24.089251	-0.746856	1.117502	2.677907	0.000000	0.142198	0.000000	-0.000001	0.000000	0.000000	0.000000
2.221453	13.391240	22.855264	-1.145586	1.670258	2.757369	0.000000	0.218547	0.000000	-0.000001	0.000000	0.000000	0.000000
2.662413	14.595888	21.165568	-1.596655	2.147018	2.871014	0.000000	0.297386	0.000000	-0.000001	0.000000	0.000000	0.000000
3.108373	16.249701	19.072259	-2.124972	2.527221	3.021997	0.000000	0.380101	0.000000	-0.000001	0.000000	0.000000	0.000000
3.657433	18.370388	16.721293	-1.714560	1.779856	3.205423	0.000000	0.287063	0.000000	-0.000001	0.000000	0.000000	0.000000
4.206493	19.970818	15.117008	-1.183040	1.159266	3.336292	0.000000	0.188934	0.000000	-0.000001	0.000000	0.000000	0.000000
4.755553	20.937944	14.145135	-0.567956	0.621249	3.412280	0.000000	0.087454	0.000000	-0.000001	0.000000	0.000000	0.000000
5.304613	21.203454	13.736450	0.087246	0.127481	3.432041	0.000000	-0.015578	0.000000	-0.000001	0.000000	0.000000	0.000000
5.603185	21.188647	13.645556	0.017749	0.141056	3.430067	0.000000	-0.006611	0.000000	-0.000001	0.000000	0.000000	0.000000
5.936519	21.182060	13.559823	0.002012	0.116142	3.427864	0.000000	-0.006611	0.000000	-0.000001	0.000000	0.000000	0.000000
6.269852	21.185964	13.490699	-0.013724	0.091228	3.425660	0.000000	-0.006611	0.000000	-0.000001	0.000000	0.000000	0.000000
6.604435	21.200433	13.438019	-0.029520	0.066221	3.423448	0.000000	-0.006611	0.000000	-0.000001	0.000000	0.000000	0.000000
6.901758	21.222160	13.405249	-0.099006	0.079024	3.421483	0.000000	0.002329	0.000000	-0.000001	0.000000	0.000000	0.000000
7.450818	20.969100	13.578913	0.557175	-0.397185	3.394562	0.000000	-0.100245	0.000000	-0.000001	0.000000	0.000000	0.000000
7.999878	20.012920	14.287885	1.174001	-0.901684	3.311729	0.000000	-0.201040	0.000000	-0.000000	0.000000	0.000000	0.000000
8.548938	18.421160	15.582664	1.707901	-1.470409	3.174451	0.000000	-0.298270	0.000000	-0.000000	0.000000	0.000000	0.000000
9.097998	16.306255	17.555473	2.121163	-2.143867	2.985164	0.000000	-0.390209	0.000000	-0.000000	0.000000	0.000000	0.000000
9.543958	14.656087	19.313426	1.592253	-1.781425	2.829452	0.000000	-0.308510	0.000000	-0.000000	0.000000	0.000000	0.000000
9.984918	13.455656	20.694735	1.140387	-1.339158	2.710656	0.000000	-0.230810	0.000000	-0.000000	0.000000	0.000000	0.000000
10.425878	12.629340	21.657538	0.740623	-0.835960	2.625510	0.000000	-0.155738	0.000000	-0.000000	0.000000	0.000000	0.000000
10.866838	12.139388	22.158030	0.374696	-0.294726	2.573047	0.000000	-0.082440	0.000000	-0.000000	0.000000	0.000000	0.000000
11.309048	11.963276	22.172924	0.055121	0.205483	2.552647	0.000000	-0.016340	0.000000	0.000000	0.000000	0.000000	0.000000
11.606371	11.937911	22.054890	0.030192	0.191507	2.547789	0.000000	-0.016340	0.000000	0.000000	0.000000	0.000000	0.000000
12.086371	11.928244	21.881873	-0.010053	0.168945	2.539945	0.000000	-0.016340	0.000000	0.000000	0.000000	0.000000	0.000000
12.566371	11.957212	21.730516	-0.050297	0.146383	2.532102	0.000000	-0.016340	0.000000	0.000000	0.000000	0.000000	0.000000
13.046371	12.024815	21.600818	-0.090542	0.123821	2.524258	0.000000	-0.016340	0.000000	0.000000	0.000000	0.000000	0.000000
13.526371	12.131053	21.492780	-0.130787	0.101259	2.516415	0.000000	-0.016340	0.000000	0.000000	0.000000	0.000000	0.000000
14.007621	12.276353	21.406205	-0.171136	0.078638	2.508551	0.000000	-0.016340	0.000000	0.000001	0.000000	0.000000	0.000000
14.304943	12.385530	21.363598	-0.165692	0.012273	2.503693	0.000000	-0.022480	0.000000	0.000001	0.000000	0.000000	0.000000
14.745903	12.690424	21.118918	-0.528363	0.540495	2.509408	0.000000	0.048428	0.000000	0.000001	0.000000	0.000000	0.000000
15.186863	13.324561	20.417494	-0.915174	1.044126	2.546483	0.000000	0.119887	0.000000	0.000001	0.000000	0.000000	0.000000
15.627823	14.316912	19.291241	-1.343797	1.500249	2.615339	0.000000	0.192711	0.000000	0.000001	0.000000	0.000000	0.000000
16.068783	15.712815	17.791402	-1.833814	1.888112	2.716760	0.000000	0.267731	0.000000	0.000001	0.000000	0.000000	0.000000
16.514743	17.599701	15.964718	-2.412370	2.190818	2.853597	0.000000	0.346262	0.000000	0.000001	0.000000	0.000000	0.000000
17.063803	20.022822	13.924912	-1.974722	1.546199	3.019992	0.000000	0.258957	0.000000	0.000001	0.000000	0.000000	0.000000
17.612863	21.885448	12.528707	-1.397589	1.011712	3.137118	0.000000	0.167058	0.000000	0.000001	0.000000	0.000000	0.000000
18.161923	23.056015	11.676654	-0.721737	0.549287	3.202898	0.000000	0.072196	0.000000	0.000001	0.000000	0.000000	0.000000
18.710983	23.451838	11.308064	0.005094	0.125987	3.216163	0.000000	-0.023946	0.000000	0.000001	0.000000	0.000000	0.000000
19.009556	23.489199	11.223263	-0.068952	0.128490	3.211523	0.000000	-0.015543	0.000000	0.000001	0.000000	0.000000	0.000000
19.342889	23.539919	11.147666	-0.083210	0.098299	3.206342	0.000000	-0.015543	0.000000	0.000002	0.000000	0.000000	0.000000
19.676223	23.600145	11.092197	-0.097468	0.068109	3.201161	0.000000	-0.015543	0.000000	0.000002	0.000000	0.000000	0.000000
20.010806	23.670450	11.056623	-0.229057	0.092586	3.195980	0.000000	0.000292	0.000000	0.000002	0.000000	0.000000	0.000000
20.308129	23.810588	11.009631	-0.304489	0.094231	3.196067	0.000000	0.008643	0.000000	0.000002	0.000000	0.000000	0.000000
20.857189	23.734292	11.128766	0.442623	-0.312491	3.174602	0.000000	-0.086715	0.000000	0.000002	0.000000	0.000000	0.000000
21.406249	22.849961	11.704059	1.158470	-0.741471	3.101126	0.000000	-0.180536	0.000000	0.000002	0.000000	0.000000	0.000000
21.955309	21.220059	12.776486	1.792489	-1.223264	2.976941	0.000000	-0.271153	0.000000	0.000002	-0.000000	0.000000	0.000000
22.504369	18.959714	14.422435	2.299895	-1.792188	2.804250	0.000000	-0.356962	0.000000	0.000002	-0.000000	0.000000	0.000000
22.950329	17.178556	15.900000	1.708193	-1.507059	2.662347	0.000000	-0.279777	0.000000	0.000002	-0.000000	0.000000	0.000000
23.391289	15.901344	17.078000	1.199231	-1.154218	2.555294	0.000000	-0.206233	0.000000	0.000002	-0.000000	0.000000	0.000000
23.832249	15.047230	17.920387	0.745059	-0.748861	2.480122	0.000000	-0.135037	0.000000	0.000002	0.000000	0.000000	0.000000
24.273209	14.577192	18.388835	0.324926	-0.309432	2.435976	0.000000	-0.065380	0.000000	0.000002	0.000000	0.000000	0.000000
24.715418	14.469869	18.461782	-0.044964	0.098734	2.422350	0.000000	-0.002408	0.000000	0.000002	0.000000	0.000000	0.000000
25.012741	14.502728	18.407905	-0.065554	0.082472	2.421634	0.000000	-0.002408	0.000000	0.000002	0.000000	0.000000	0.000000
25.346075	14.554125	18.359001	-0.088637	0.064241	2.420832	0.000000	-0.002408	0.000000	0.000002	0.000000	0.000000	0.000000
25.679408	14.620910	18.322251	-0.111719	0.046010	2.420029	0.000000	-0.002408	0.000000	0.000002	0.000000	0.000000	0.000000
26.013991	14.703123	18.297956	-0.015608	-0.120732	2.419199	0.000000	-0.022034	0.000000	0.000002	0.000000	0.000000	0.000000
26.311314	14.718418	18.374650	0.000259	-0.182277	2.412648	0.000000	-0.027950	0.000000	0.000002	0.000000	0.000000	0.000000
26.752274	14.899560	18.336067	-0.412607	0.269443	2.415428	0.000000	0.040572	0.000000	0.000002	0.000000	0.000000	0.000000
27.193234	15.451721	17.903007	-0.844323	0.708904	2.448497	0.000000	0.109557	0.000000	0.000002	0.000000	0.000000	0.000000
27.634194	16.400128	17.095175	-1.314614	1.116110	2.512231	0.000000	0.179790	0.000000	0.000002	0.000000	0.000000	0.000000
28.075154	17.788111	15.949327	-1.844967	1.472533	2.607357	0.000000	0.252070	0.000000	0.000002	0.000000	0.000000	0.000000
28.521114	19.703206	14.500341	-2.464564	1.762873	2.736560	0.000000	0.327664	0.000000	0.000002	0.000000	0.000000	0.000000
29.070174	22.137294	12.885697	-1.942384	1.195228	2.893813	0.000000	0.244299	0.000000	0.000002	0.000000	0.000000	0.000000
29.619234	23.918772	11.844268	-1.283005	0.712717	3.004034	0.000000	0.156601	0.000000	0.000003	0.000000	0.000000	0.000000
30.168294	24.921805	11.301875	-0.533000	0.280971	3.065269	0.000000	0.066125	0.000000	0.000003	0.000000	0.000000	0.000000
30.717354	25.075544	11.219885	0.254653	-0.130762	3.076432	0.000000	-0.025524	0.000000	0.000003	0.000000	0.000000	0.000000
31.015927	24.966284	11.288491	0.176804	-0.128332	3.071211	0.000000	-0.017486	0.000000	0.000003	0.000000	0.000000	0.000000
31.349260	24.853005	11.384050	0.163035	-0.158347	3.065383	0.000000	-0.017486	0.000000	0.000003	0.000000	0.000000	0.000000
31.682593	24.748904	11.499620	0.149267	-0.188362	3.059554	0.000000	-0.017486	0.000000	0.000003	0.000000	0.000000	0.000000
32.017177	24.653644	11.635746	0.135446	-0.218489	3.053704	0.000000	-0.017486	0.000000	0.000003	0.000000	0.000000	0.000000
32.314499	24.576753	11.773629	0.058952	-0.214500	3.048505	0.000000	-0.009521	0.000000	0.000003	0.000000	0.000000	0.000000
32.863559	24.091022	12.248557	0.820470	-0.655589	3.018406	0.000000	-0.099958	0.000000	0.000003	-0.000000	0.000000	0.000000
33.412619	22.796084	13.230500	1.524033	-1.143375	2.939065	0.000000	-0.188622	0.000000	0.000003	-0.000000	0.000000	0.000000
33.961679	20.783406	14.789401	2.119947	-1.712601	2.811891	0.000000	-0.273941	0.000000	0.000003	-0.000000	0.000000	0.000000
34.510739	18.195153	17.036296	2.566118	-2.403811	2.639138	0.000000	-0.354400	0.000000	0.000002	-0.000000	0.000000	0.000000
34.956699	16.182848	19.045973	1.962348	-2.083779	2.497426	0.000000	-0.281495	0.000000	0.000002	-0.000000	0.000000	0.000000
35.397659	14.682406	20.707423	1.453233	-1.669685	2.388674	0.000000	-0.212225	0.000000	0.000002	-0.000000	0.000000	0.000000
35.838619	13.600098	21.968653	1.010512	-1.179622	2.309906	0.000000	-0.145371	0.000000	0.000002	-0.000000	0.000000	0.000000
36.279579	12.886479	22.772279	0.613959	-0.635888	2.260226	0.000000	-0.080174	0.000000	0.000002	-0.000000	0.000000	0.000000
36.721789	12.508254	23.082035	0.276023	-0.119878	2.239039	0.000000	-0.021380	0.000000	0.000002	-0.000000	0.000000	0.000000
37.019112	12.351724	23.157204	0.250441	-0.132944	2.232683	0.000000	-0.021380	0.000000	0.000002	-0.000000	0.000000	0.000000
37.352445	12.194323	23.250716	0.221762	-0.147593	2.225556	0.000000	-0.021380	0.000000	0.000002	-0.000000	0.000000	0.000000
37.685779	12.056041	23.353994	0.193083	-0.162241	2.218429	0.000000	-0.021380	0.000000	0.000002	-0.000000	0.000000	0.000000
38.020362	11.936468	23.467481	0.164296	-0.176945	2.211276	0.000000	-0.021380	0.000000	0.000002	-0.000000	0.000000	0.000000
38.317684	11.846376	23.576585	0.167765	-0.247827	2.204920	0.000000	-0.026787	0.000000	0.000002	-0.000000	0.000000	0.000000
38.758644	11.849544	23.534030	-0.174975	0.343966	2.207031	0.000000	0.036372	0.000000	0.000002	0.000000	0.000000	0.000000
39.199604	12.157349	22.974494	-0.525708	0.920109	2.237058	0.000000	0.099945	0.000000	0.000002	0.000000	0.000000	0.000000
39.640564	12.783855	21.923435	-0.900460	1.454388	2.295342	0.000000	0.164657	0.000000	0.000002	0.000000	0.000000	0.000000
40.081524	13.757685	20.428677	-1.316351	1.922494	2.382547	0.000000	0.231244	0.000000	0.000002	0.000000	0.000000	0.000000
40.527484	15.140891	18.535662	-1.796205	2.304405	2.501138	0.000000	0.300869	0.000000	0.000002	0.000000	0.000000	0.000000
41.076544	16.906329	16.408502	-1.400144	1.592648	2.645810	0.000000	0.225336	0.000000	0.000002	0.000000	0.000000	0.000000
41.625604	18.179630	14.996430	-0.905184	0.994332	2.747850	0.000000	0.145806	0.000000	0.000002	0.000000	0.000000	0.000000
42.174664	18.870853	14.198866	-0.346286	0.466841	2.805447	0.000000	0.063690	0.000000	0.000002	-0.000000	0.000000	0.000000
42.723724	18.931175	13.959002	0.237072	-0.027399	2.817581	0.000000	-0.019556	0.000000	0.000002	-0.000000	0.000000	0.000000
43.022297	18.824020	13.959971	0.171282	-0.012319	2.813940	0.000000	-0.012195	0.000000	0.000002	-0.000000	0.000000	0.000000
43.502297	18.672188	13.988304	0.145035	-0.046708	2.808087	0.000000	-0.012195	0.000000	0.000002	-0.000000	0.000000	0.000000
43.982297	18.545553	14.049650	0.118788	-0.081097	2.802233	0.000000	-0.012195	0.000000	0.000002	-0.000000	0.000000	0.000000
44.462297	18.444116	14.144010	0.092540	-0.115486	2.796380	0.000000	-0.012195	0.000000	0.000002	-0.000000	0.000000	0.000000
44.942297	18.367876	14.271383	0.066293	-0.149875	2.790526	0.000000	-0.012195	0.000000	0.000002	-0.000000	0.000000	0.000000
45.423547	18.316960	14.432053	-0.050775	-0.112849	2.784675	0.000000	0.001602	0.000000	0.000002	-0.000000	0.000000	0.000000
45.720870	18.351992	14.505361	-0.114999	-0.095814	2.785151	0.000000	0.008879	0.000000	0.000002	-0.000000	0.000000	0.000000
46.269930	18.169256	14.891215	0.445846	-0.611088	2.767460	0.000000	-0.073226	0.000000	0.000002	-0.000000	0.000000	0.000000
46.818990	17.384372	15.863340	0.975198	-1.169889	2.704979	0.000000	-0.154032	0.000000	0.000002	-0.000000	0.000000	0.000000
47.368050	16.052780	17.490979	1.435667	-1.812018	2.598816	0.000000	-0.232107	0.000000	0.000002	-0.000000	0.000000	0.000000
47.917110	14.268538	19.890064	1.794727	-2.583214	2.450854	0.000000	-0.306064	0.000000	0.000002	-0.000000	0.000000	0.000000
48.363070	12.879882	22.023186	1.330162	-2.179892	2.329652	0.000000	-0.237777	0.000000	0.000002	-0.000000	0.000000	0.000000
48.804030	11.886949	23.731150	0.930133	-1.678655	2.239259	0.000000	-0.172595	0.000000	0.000002	-0.000000	0.000000	0.000000
49.244990	11.226808	24.961566	0.572600	-1.101040	2.177149	0.000000	-0.109378	0.000000	0.000001	-0.000000	0.000000	0.000000
49.685950	10.869298	25.658452	0.241228	-0.473329	2.142614	0.000000	-0.047408	0.000000	0.000001	-0.000000	0.000000	0.000000
50.128160	10.798218	25.789819	-0.052760	0.112624	2.135271	0.000000	0.008787	0.000000	0.000001	-0.000000	0.000000	0.000000
50.425482	10.837801	25.726318	-0.080371	0.100949	2.137884	0.000000	0.008787	0.000000	0.000001	-0.000000	0.000000	0.000000
50.758816	10.901700	25.663382	-0.111326	0.087860	2.140813	0.000000	0.008787	0.000000	0.000001	-0.000000	0.000000	0.000000
51.092149	10.986236	25.609171	-0.142281	0.074771	2.143741	0.000000	0.008787	0.000000	0.000001	-0.000000	0.000000	0.000000
51.426732	11.091617	25.564051	-0.083370	-0.145755	2.146660	0.000000	-0.008628	0.000000	0.000001	-0.000000	0.000000	0.000000
51.724055	11.149218	25.654254	-0.083022	-0.220543	2.144094	0.000000	-0.013886	0.000000	0.000001	-0.000000	0.000000	0.000000
52.165015	11.367964	25.563384	-0.414928	0.425833	2.151559	0.000000	0.047774	0.000000	0.000001	-0.000000	0.000000	0.000000
52.605975	11.886646	24.908859	-0.765791	1.052835	2.186307	0.000000	0.109978	0.000000	0.000001	-0.000000	0.000000	0.000000
53.046935	12.728961	23.720461	-1.151641	1.631934	2.248734	0.000000	0.173434	0.000000	0.000001	-0.000000	0.000000	0.000000
53.487895	13.933392	22.052261	-1.590106	2.136781	2.339551	0.000000	0.238866	0.000000	0.000001	-0.000000	0.000000	0.000000
53.933855	15.575606	19.955215	-2.105459	2.545739	2.461298	0.000000	0.307417	0.000000	0.000001	-0.000000	0.000000	0.000000
54.482915	17.689836	17.595626	-1.722382	1.777135	2.609908	0.000000	0.233111	0.000000	0.000001	-0.000000	0.000000	0.000000
55.031975	19.313700	16.006011	-1.217645	1.135111	2.716523	0.000000	0.154670	0.000000	0.000001	-0.000000	0.000000	0.000000
55.581035	20.332497	15.073147	-0.626900	0.573939	2.779251	0.000000	0.073485	0.000000	0.000001	-0.000000	0.000000	0.000000
56.130095	20.674264	14.730586	0.008126	0.053648	2.796979	0.000000	-0.009002	0.000000	0.000001	-0.000000	0.000000	0.000000
56.428668	20.705989	14.681670	-0.060364	0.071695	2.796473	0.000000	-0.001694	0.000000	0.000001	-0.000000	0.000000	0.000000
56.762001	20.751617	14.641481	-0.076521	0.048874	2.795909	0.000000	-0.001694	0.000000	0.000001	-0.000000	0.000000	0.000000
57.095334	20.808016	14.616505	-0.092678	0.026053	2.795344	0.000000	-0.001694	0.000000	0.000001	-0.000000	0.000000	0.000000
57.429918	20.875460	14.606735	-0.108895	0.003147	2.794777	0.000000	-0.001694	0.000000	0.000001	-0.000000	0.000000	0.000000
57.727240	20.944499	14.610916	-0.178031	0.020967	2.794273	0.000000	0.005606	0.000000	0.000001	-0.000000	0.000000	0.000000
58.276300	20.782597	14.868559	0.471155	-0.492980	2.774710	0.000000	-0.076764	0.000000	0.000000	-0.000000	0.000000	0.000000
58.825360	19.921948	15.706432	1.087061	-1.042041	2.710227	0.000000	-0.157773	0.000000	0.000000	-0.000000	0.000000	0.000000
59.374420	18.423344	17.184215	1.626182	-1.665325	2.601970	0.000000	-0.235983	0.000000	0.000000	-0.000000	0.000000	0.000000
59.923480	16.392637	19.407168	2.050438	-2.407226	2.451858	0.000000	-0.310008	0.000000	0.000000	-0.000000	0.000000	0.000000
60.369440	14.803090	21.383043	1.526511	-2.004684	2.328899	0.000000	-0.241717	0.000000	0.000000	-0.000000	0.000000	0.000000
60.810400	13.659587	22.939817	1.076540	-1.512300	2.236761	0.000000	-0.176577	0.000000	0.000000	-0.000000	0.000000	0.000000
61.251360	12.889816	24.030231	0.675753	-0.951108	2.172877	0.000000	-0.113448	0.000000	0.000000	-0.000000	0.000000	0.000000
61.692320	12.458609	24.604672	0.305840	-0.346641	2.136520	0.000000	-0.051611	0.000000	-0.000000	-0.000000	0.000000	0.000000
62.134530	12.346314	24.636471	-0.019926	0.213128	2.127280	0.000000	0.004421	0.000000	-0.000000	-0.000000	0.000000	0.000000
62.431853	12.365326	24.513487	-0.044017	0.200511	2.128595	0.000000	0.004421	0.000000	-0.000000	-0.000000	0.000000	0.000000
62.765186	12.403674	24.384528	-0.071026	0.186366	2.130068	0.000000	0.004421	0.000000	-0.000000	-0.000000	0.000000	0.000000
63.098520	12.460028	24.264998	-0.098036	0.172222	2.131542	0.000000	0.004421	0.000000	-0.000000	-0.000000	0.000000	0.000000
63.433103	12.534701	24.154503	-0.125146	0.158024	2.133022	0.000000	0.004421	0.000000	-0.000000	-0.000000	0.000000	0.000000
63.730426	12.616281	24.064286	-0.118299	0.086394	2.134336	0.000000	-0.000813	0.000000	-0.000000	-0.000000	0.000000	0.000000
64.171386	12.881192	23.723055	-0.484739	0.684498	2.147521	0.000000	0.060669	0.000000	-0.000000	-0.000000	0.000000	0.000000
64.612346	13.477781	22.866116	-0.873326	1.251456	2.187943	0.000000	0.122842	0.000000	-0.000001	-0.000000	0.000000	0.000000
65.053306	14.433305	21.532459	-1.301812	1.761475	2.256063	0.000000	0.186414	0.000000	-0.000001	-0.000000	0.000000	0.000000
65.494266	15.791419	19.782764	-1.789775	2.191348	2.352657	0.000000	0.252110	0.000000	-0.000001	-0.000000	0.000000	0.000000
65.940226	17.637344	17.671870	-2.364202	2.522275	2.480398	0.000000	0.321078	0.000000	-0.000001	-0.000000	0.000000	0.000000
66.489286	20.003373	15.310341	-1.919525	1.804153	2.636317	0.000000	0.246035	0.000000	-0.000001	-0.000000	0.000000	0.000000
67.038346	21.803296	13.662625	-1.339262	1.214537	2.749772	0.000000	0.166627	0.000000	-0.000001	-0.000000	0.000000	0.000000
67.587406	22.909978	12.611359	-0.664400	0.711430	2.818751	0.000000	0.084264	0.000000	-0.000001	-0.000000	0.000000	0.000000
68.136466	23.245246	12.081664	0.057392	0.258996	2.842030	0.000000	0.000407	0.000000	-0.000001	-0.000000	0.000000	0.000000
68.435038	23.251078	11.916157	-0.016189	0.263764	2.844369	0.000000	0.007832	0.000000	-0.000001	-0.000000	0.000000	0.000000
68.768372	23.266651	11.750287	-0.030529	0.233845	2.846980	0.000000	0.007832	0.000000	-0.000001	-0.000000	0.000000	0.000000
69.101705	23.291783	11.604364	-0.044869	0.203926	2.849590	0.000000	0.007832	0.000000	-0.000001	-0.000000	0.000000	0.000000
69.436288	23.326624	11.477951	-0.059263	0.173894	2.852211	0.000000	0.007832	0.000000	-0.000001	-0.000000	0.000000	0.000000
69.733611	23.365667	11.382481	-0.133104	0.176948	2.854540	0.000000	0.015291	0.000000	-0.000001	-0.000000	0.000000	0.000000
70.282671	23.110550	11.416034	0.594997	-0.238419	2.839743	0.000000	-0.069110	0.000000	-0.000001	-0.000000	0.000000	0.000000
