#ParticleID	Turn	x[m]	xp	y[m]	yp	z[m]	dE[GeV]# s	beta_x	beta_y	alpha_x	alpha_y	D_x	D_y	D_px	D_py	orbit_x	orbit_px	orbit_y	orbit_py
0.300000	11.816650	25.007355	-0.011326	-0.027401	2.618048	0.000000	0.000039	0.000000	-0.000002	0.000001	0.000000	0.000000
0.601250	11.831154	25.027496	-0.036823	-0.039457	2.618060	0.000000	0.000039	0.000000	-0.000001	0.000001	0.000000	0.000000
0.898573	11.860533	25.054496	-0.032901	-0.112796	2.618071	0.000000	-0.006382	0.000000	-0.000001	0.000001	0.000000	0.000000
1.339533	12.041713	24.876057	-0.379533	0.515916	2.631549	0.000000	0.067574	0.000000	-0.000001	0.000001	0.000000	0.000000
1.780493	12.535056	24.151416	-0.743504	1.121155	2.677778	0.000000	0.142300	0.000000	-0.000000	0.000001	0.000000	0.000000
2.221453	13.363102	22.913545	-1.141444	1.675382	2.757284	0.000000	0.218647	0.000000	0.000000	0.000001	0.000000	0.000000
2.662413	14.563681	21.218764	-1.591534	2.153381	2.870972	0.000000	0.297484	0.000000	0.000001	0.000001	0.000000	0.000000
3.108373	16.212400	19.119331	-2.118627	2.534534	3.021998	0.000000	0.380199	0.000000	0.000001	0.000001	0.000000	0.000000
3.657433	18.326597	16.761374	-1.709154	1.785348	3.205478	0.000000	0.287160	0.000000	0.000002	0.000001	0.000000	0.000000
4.206493	19.921785	15.151874	-1.178955	1.163329	3.336398	0.000000	0.189028	0.000000	0.000002	0.000001	0.000000	0.000000
4.755553	20.885288	14.176188	-0.565481	0.624171	3.412437	0.000000	0.087544	0.000000	0.000003	0.000001	0.000000	0.000000
5.304613	21.149050	13.764822	0.087937	0.129471	3.432246	0.000000	-0.015494	0.000000	0.000003	0.000001	0.000000	0.000000
5.603185	21.133755	13.672686	0.018547	0.143150	3.430297	0.000000	-0.006526	0.000000	0.000003	0.000001	0.000000	0.000000
5.936519	21.126650	13.585546	0.002769	0.118271	3.428121	0.000000	-0.006526	0.000000	0.000004	0.000001	0.000000	0.000000
6.269852	21.130064	13.514991	-0.013009	0.093392	3.425945	0.000000	-0.006526	0.000000	0.000004	0.000001	0.000000	0.000000
6.604435	21.144068	13.460852	-0.028846	0.068420	3.423762	0.000000	-0.006526	0.000000	0.000004	0.000001	0.000000	0.000000
6.901758	21.165405	13.426764	-0.098219	0.081309	3.421821	0.000000	0.002414	0.000000	0.000004	0.000001	0.000000	0.000000
7.450818	20.912529	13.598245	0.556055	-0.395469	3.394944	0.000000	-0.100171	0.000000	0.000005	0.000001	0.000000	0.000000
7.999878	19.958596	14.305588	1.171052	-0.900415	3.312146	0.000000	-0.200980	0.000000	0.000005	0.000000	0.000000	0.000000
8.548938	18.370989	15.599175	1.703332	-1.469496	3.174898	0.000000	-0.298223	0.000000	0.000005	0.000000	0.000000	0.000000
9.097998	16.261846	17.571147	2.115297	-2.143245	2.985633	0.000000	-0.390177	0.000000	0.000005	0.000000	0.000000	0.000000
9.543958	14.616315	19.328282	1.587685	-1.780220	2.829937	0.000000	-0.308467	0.000000	0.000005	0.000000	0.000000	0.000000
9.984918	13.419423	20.708292	1.136899	-1.337428	2.711162	0.000000	-0.230753	0.000000	0.000006	0.000000	0.000000	0.000000
10.425878	12.595767	21.669367	0.738055	-0.833784	2.626045	0.000000	-0.155668	0.000000	0.000006	0.000001	0.000000	0.000000
10.866838	12.107718	22.167779	0.372931	-0.292204	2.573616	0.000000	-0.082355	0.000000	0.000006	0.000001	0.000000	0.000000
11.309048	11.932843	22.180331	0.054001	0.208221	2.553256	0.000000	-0.016242	0.000000	0.000006	0.000001	0.000000	0.000000
11.606371	11.908161	22.060672	0.029012	0.194235	2.548427	0.000000	-0.016242	0.000000	0.000007	0.000001	0.000000	0.000000
12.086371	11.899674	21.885044	-0.011330	0.171656	2.540630	0.000000	-0.016242	0.000000	0.000007	0.000001	0.000000	0.000000
12.566371	11.929915	21.731091	-0.051673	0.149077	2.532833	0.000000	-0.016242	0.000000	0.000007	0.000001	0.000000	0.000000
13.046371	11.998885	21.598815	-0.092015	0.126498	2.525037	0.000000	-0.016242	0.000000	0.000008	0.000001	0.000000	0.000000
13.526371	12.106584	21.488215	-0.132357	0.103919	2.517240	0.000000	-0.016242	0.000000	0.000008	0.000001	0.000000	0.000000
14.007621	12.253443	21.399087	-0.172805	0.081281	2.509423	0.000000	-0.016242	0.000000	0.000009	0.000001	0.000000	0.000000
14.304943	12.363631	21.354912	-0.167477	0.014931	2.504594	0.000000	-0.022383	0.000000	0.000009	0.000001	0.000000	0.000000
14.745903	12.669899	21.108008	-0.529707	0.542860	2.510357	0.000000	0.048548	0.000000	0.000009	0.000001	0.000000	0.000000
15.186863	13.305049	20.404668	-0.916137	1.046090	2.547490	0.000000	0.120032	0.000000	0.000010	0.000001	0.000000	0.000000
15.627823	14.298099	19.276893	-1.344423	1.501723	2.616415	0.000000	0.192884	0.000000	0.000011	0.000002	0.000000	0.000000
16.068783	15.694418	17.775996	-1.834132	1.889028	2.717919	0.000000	0.267932	0.000000	0.000011	0.000002	0.000000	0.000000
16.514743	17.581456	15.948763	-2.412395	2.191131	2.854851	0.000000	0.346495	0.000000	0.000012	0.000002	0.000000	0.000000
17.063803	20.005050	13.908461	-1.975551	1.546793	3.021362	0.000000	0.259147	0.000000	0.000013	0.000002	0.000000	0.000000
17.612863	21.869005	12.511430	-1.399163	1.012631	3.138579	0.000000	0.167202	0.000000	0.000014	0.000001	0.000000	0.000000
18.161923	23.041662	11.658162	-0.723946	0.550595	3.204424	0.000000	0.072292	0.000000	0.000015	0.000001	0.000000	0.000000
18.710983	23.440189	11.287880	0.002408	0.127778	3.217729	0.000000	-0.023900	0.000000	0.000015	0.000000	0.000000	0.000000
19.009556	23.479135	11.202061	-0.071611	0.130162	3.213103	0.000000	-0.015494	0.000000	0.000015	0.000000	0.000000	0.000000
19.342889	23.531632	11.125373	-0.085881	0.099902	3.207938	0.000000	-0.015494	0.000000	0.000015	0.000000	0.000000	0.000000
19.676223	23.593643	11.068859	-0.100151	0.069641	3.202773	0.000000	-0.015494	0.000000	0.000015	0.000000	0.000000	0.000000
20.010806	23.665746	11.032283	-0.231727	0.093928	3.197609	0.000000	0.000349	0.000000	0.000015	0.000000	0.000000	0.000000
20.308129	23.807477	10.984513	-0.307162	0.095437	3.197713	0.000000	0.008703	0.000000	0.000016	0.000001	0.000000	0.000000
20.857189	23.734160	11.101930	0.439905	-0.310551	3.176266	0.000000	-0.086709	0.000000	0.000016	0.000000	0.000000	0.000000
21.406249	22.852750	11.674629	1.155898	-0.738658	3.102778	0.000000	-0.180583	0.000000	0.000016	-0.000001	0.000000	0.000000
21.955309	21.225507	12.743400	1.790245	-1.219379	2.978553	0.000000	-0.271254	0.000000	0.000015	-0.000001	0.000000	0.000000
22.504369	18.967371	14.384370	2.298138	-1.786953	2.805794	0.000000	-0.357113	0.000000	0.000015	-0.000001	0.000000	0.000000
22.950329	17.187768	15.857637	1.706446	-1.502694	2.663833	0.000000	-0.279889	0.000000	0.000014	-0.000001	0.000000	0.000000
23.391289	15.912122	17.032244	1.197413	-1.150919	2.556739	0.000000	-0.206307	0.000000	0.000014	-0.000001	0.000000	0.000000
23.832249	15.059672	17.872249	0.743087	-0.746778	2.481543	0.000000	-0.135075	0.000000	0.000013	-0.000000	0.000000	0.000000
24.273209	14.591474	18.339433	0.322710	-0.308660	2.437389	0.000000	-0.065381	0.000000	0.000013	-0.000000	0.000000	0.000000
24.715418	14.486256	18.412293	-0.047489	0.098287	2.423770	0.000000	-0.002375	0.000000	0.000013	0.000000	0.000000	0.000000
25.012741	14.520612	18.358695	-0.068060	0.081983	2.423064	0.000000	-0.002375	0.000000	0.000013	0.000000	0.000000	0.000000
25.346075	14.573672	18.310133	-0.091122	0.063704	2.422273	0.000000	-0.002375	0.000000	0.000013	0.000000	0.000000	0.000000
25.679408	14.642108	18.273756	-0.114185	0.045425	2.421481	0.000000	-0.002375	0.000000	0.000013	0.000000	0.000000	0.000000
26.013991	14.725963	18.249868	-0.017867	-0.120974	2.420662	0.000000	-0.022013	0.000000	0.000014	0.000000	0.000000	0.000000
26.311314	14.742593	18.326720	-0.001915	-0.182441	2.414117	0.000000	-0.027932	0.000000	0.000014	0.000000	0.000000	0.000000
26.752274	14.925921	18.288854	-0.415410	0.267985	2.416914	0.000000	0.040629	0.000000	0.000014	0.000000	0.000000	0.000000
27.193234	15.480877	17.857628	-0.847883	0.706219	2.450016	0.000000	0.109652	0.000000	0.000014	0.000001	0.000000	0.000000
27.634194	16.432816	17.052662	-1.319094	1.112319	2.513801	0.000000	0.179925	0.000000	0.000014	0.000001	0.000000	0.000000
28.075154	17.825230	15.910581	-1.850571	1.467811	2.608995	0.000000	0.252246	0.000000	0.000015	0.000002	0.000000	0.000000
28.521114	19.745924	14.466147	-2.471560	1.757430	2.738286	0.000000	0.327884	0.000000	0.000016	0.000002	0.000000	0.000000
29.070174	22.187142	12.856743	-1.948295	1.191071	2.895643	0.000000	0.244462	0.000000	0.000017	0.000001	0.000000	0.000000
29.619234	23.974320	11.819312	-1.287412	0.709549	3.005936	0.000000	0.156703	0.000000	0.000017	0.000001	0.000000	0.000000
30.168294	24.981220	11.279961	-0.535593	0.278567	3.067210	0.000000	0.066165	0.000000	0.000018	0.000000	0.000000	0.000000
30.717354	25.136720	11.200273	0.254058	-0.132574	3.078377	0.000000	-0.025547	0.000000	0.000018	-0.000000	0.000000	0.000000
31.015927	25.027897	11.270010	0.176090	-0.130256	3.073151	0.000000	-0.017505	0.000000	0.000018	-0.000000	0.000000	0.000000
31.349260	24.915080	11.366874	0.162359	-0.160335	3.067316	0.000000	-0.017505	0.000000	0.000017	-0.000000	0.000000	0.000000
31.682593	24.811418	11.483790	0.148627	-0.190414	3.061481	0.000000	-0.017505	0.000000	0.000017	-0.000000	0.000000	0.000000
32.017177	24.716573	11.621311	0.134845	-0.220605	3.055624	0.000000	-0.017505	0.000000	0.000017	-0.000000	0.000000	0.000000
32.314499	24.640030	11.760469	0.058226	-0.216711	3.050420	0.000000	-0.009536	0.000000	0.000017	-0.000000	0.000000	0.000000
32.863559	24.153937	12.237675	0.821851	-0.657551	3.020295	0.000000	-0.100035	0.000000	0.000017	-0.000001	0.000000	0.000000
33.412619	22.856361	13.221699	1.527425	-1.145226	2.940896	0.000000	-0.188759	0.000000	0.000016	-0.000001	0.000000	0.000000
33.961679	20.838957	14.782632	2.125109	-1.714473	2.813631	0.000000	-0.274136	0.000000	0.000016	-0.000002	0.000000	0.000000
34.510739	18.244225	17.031655	2.572686	-2.405838	2.640757	0.000000	-0.354650	0.000000	0.000014	-0.000002	0.000000	0.000000
34.956699	16.226730	19.043315	1.967457	-2.086179	2.498944	0.000000	-0.281704	0.000000	0.000014	-0.000002	0.000000	0.000000
35.397659	14.722332	20.707006	1.457128	-1.672347	2.390109	0.000000	-0.212396	0.000000	0.000013	-0.000002	0.000000	0.000000
35.838619	13.637057	21.970655	1.013371	-1.182424	2.311274	0.000000	-0.145506	0.000000	0.000012	-0.000001	0.000000	0.000000
36.279579	12.921323	22.776766	0.615912	-0.638701	2.261542	0.000000	-0.080274	0.000000	0.000012	-0.000001	0.000000	0.000000
36.721789	12.541737	23.088968	0.277240	-0.122587	2.240319	0.000000	-0.021449	0.000000	0.000011	-0.000001	0.000000	0.000000
37.019112	12.384468	23.165750	0.251711	-0.135658	2.233942	0.000000	-0.021449	0.000000	0.000011	-0.000001	0.000000	0.000000
37.352445	12.226200	23.261073	0.223090	-0.150312	2.226793	0.000000	-0.021449	0.000000	0.000011	-0.000001	0.000000	0.000000
37.685779	12.087014	23.366166	0.194470	-0.164966	2.219644	0.000000	-0.021449	0.000000	0.000011	-0.000001	0.000000	0.000000
38.020362	11.966493	23.481477	0.165742	-0.179675	2.212467	0.000000	-0.021449	0.000000	0.000010	-0.000001	0.000000	0.000000
38.317684	11.875526	23.592205	0.169332	-0.250595	2.206090	0.000000	-0.026858	0.000000	0.000010	-0.000001	0.000000	0.000000
38.758644	11.877600	23.551900	-0.174054	0.341650	2.208177	0.000000	0.036330	0.000000	0.000010	-0.000000	0.000000	0.000000
39.199604	12.184863	22.994168	-0.525393	0.918351	2.238192	0.000000	0.099933	0.000000	0.000010	-0.000000	0.000000	0.000000
39.640564	12.811352	21.944385	-0.900736	1.453267	2.296477	0.000000	0.164674	0.000000	0.000010	0.000000	0.000000	0.000000
40.081524	13.785690	20.450314	-1.317230	1.922061	2.383696	0.000000	0.231290	0.000000	0.000010	0.000000	0.000000	0.000000
40.527484	15.169966	18.557367	-1.797732	2.304685	2.502314	0.000000	0.300946	0.000000	0.000010	0.000001	0.000000	0.000000
41.076544	16.936496	16.430182	-1.400593	1.592413	2.647018	0.000000	0.225374	0.000000	0.000010	0.000000	0.000000	0.000000
41.625604	18.209681	15.018657	-0.904524	0.993564	2.749068	0.000000	0.145804	0.000000	0.000010	-0.000000	0.000000	0.000000
42.174664	18.899589	14.222252	-0.344563	0.465486	2.806654	0.000000	0.063649	0.000000	0.000010	-0.000000	0.000000	0.000000
42.723724	18.957488	13.984241	0.239736	-0.029438	2.818755	0.000000	-0.019636	0.000000	0.000010	-0.000001	0.000000	0.000000
43.022297	18.848779	13.986377	0.173888	-0.014254	2.815091	0.000000	-0.012271	0.000000	0.000010	-0.000001	0.000000	0.000000
43.502297	18.694440	14.016537	0.147652	-0.048580	2.809201	0.000000	-0.012271	0.000000	0.000009	-0.000001	0.000000	0.000000
43.982297	18.565288	14.079651	0.121416	-0.082906	2.803311	0.000000	-0.012271	0.000000	0.000009	-0.000001	0.000000	0.000000
44.462297	18.461321	14.175717	0.095180	-0.117232	2.797421	0.000000	-0.012271	0.000000	0.000009	-0.000001	0.000000	0.000000
44.942297	18.382542	14.304736	0.068944	-0.151558	2.791531	0.000000	-0.012271	0.000000	0.000008	-0.000001	0.000000	0.000000
45.423547	18.329068	14.466994	-0.048172	-0.114295	2.785643	0.000000	0.001530	0.000000	0.000008	-0.000001	0.000000	0.000000
45.720870	18.362548	14.541150	-0.112406	-0.097125	2.786099	0.000000	0.008809	0.000000	0.000008	-0.000001	0.000000	0.000000
46.269930	18.176792	14.929051	0.448719	-0.613528	2.768361	0.000000	-0.073326	0.000000	0.000007	-0.000001	0.000000	0.000000
46.818990	17.388691	15.904551	0.978149	-1.173631	2.705818	0.000000	-0.154160	0.000000	0.000007	-0.000001	0.000000	0.000000
47.368050	16.053911	17.537131	1.438487	-1.817330	2.599578	0.000000	-0.232261	0.000000	0.000006	-0.000001	0.000000	0.000000
47.917110	14.266735	19.943078	1.797217	-2.590473	2.451526	0.000000	-0.306241	0.000000	0.000005	-0.000002	0.000000	0.000000
48.363070	12.875953	22.082183	1.332458	-2.185991	2.330248	0.000000	-0.237937	0.000000	0.000005	-0.000001	0.000000	0.000000
48.804030	11.881039	23.794913	0.932344	-1.683322	2.239789	0.000000	-0.172741	0.000000	0.000004	-0.000001	0.000000	0.000000
49.244990	11.218949	25.028733	0.574827	-1.104063	2.177617	0.000000	-0.109512	0.000000	0.000003	-0.000001	0.000000	0.000000
49.685950	10.859431	25.727506	0.243572	-0.474570	2.143026	0.000000	-0.047530	0.000000	0.000003	-0.000001	0.000000	0.000000
50.128160	10.786188	25.859155	-0.050222	0.113054	2.135633	0.000000	0.008674	0.000000	0.000002	-0.000001	0.000000	0.000000
50.425482	10.824268	25.795391	-0.077856	0.101409	2.138212	0.000000	0.008674	0.000000	0.000002	-0.000001	0.000000	0.000000
50.758816	10.886500	25.732136	-0.108838	0.088354	2.141103	0.000000	0.008674	0.000000	0.000002	-0.000001	0.000000	0.000000
51.092149	10.969386	25.677585	-0.139820	0.075299	2.143995	0.000000	0.008674	0.000000	0.000001	-0.000001	0.000000	0.000000
51.426732	11.073129	25.632102	-0.081085	-0.145745	2.146876	0.000000	-0.008743	0.000000	0.000001	-0.000001	0.000000	0.000000
51.724055	11.129381	25.722290	-0.080820	-0.220670	2.144277	0.000000	-0.014001	0.000000	0.000001	-0.000001	0.000000	0.000000
52.165015	11.345969	25.630736	-0.412217	0.427505	2.151692	0.000000	0.047663	0.000000	0.000000	-0.000001	0.000000	0.000000
52.605975	11.861992	24.973970	-0.762448	1.056228	2.186392	0.000000	0.109869	0.000000	-0.000000	-0.000001	0.000000	0.000000
53.046935	12.701025	23.781875	-1.147512	1.636894	2.248772	0.000000	0.173328	0.000000	-0.000001	-0.000001	0.000000	0.000000
53.487895	13.901400	22.108690	-1.585003	2.143082	2.339543	0.000000	0.238760	0.000000	-0.000001	-0.000001	0.000000	0.000000
53.933855	15.538538	20.005526	-2.099138	2.553099	2.461244	0.000000	0.307310	0.000000	-0.000002	-0.000001	0.000000	0.000000
54.482915	17.646300	17.638938	-1.716994	1.782597	2.609796	0.000000	0.233007	0.000000	-0.000002	-0.000001	0.000000	0.000000
55.031975	19.264936	16.044184	-1.213569	1.139065	2.716355	0.000000	0.154570	0.000000	-0.000003	-0.000001	0.000000	0.000000
55.581035	20.280114	15.107673	-0.624425	0.576666	2.779030	0.000000	0.073392	0.000000	-0.000003	-0.000001	0.000000	0.000000
56.130095	20.620127	14.762699	0.008826	0.055342	2.796710	0.000000	-0.009088	0.000000	-0.000004	-0.000001	0.000000	0.000000
56.428668	20.651361	14.712710	-0.059561	0.073512	2.796179	0.000000	-0.001780	0.000000	-0.000004	-0.000001	0.000000	0.000000
56.762001	20.696468	14.671295	-0.075759	0.050734	2.795585	0.000000	-0.001780	0.000000	-0.000004	-0.000001	0.000000	0.000000
57.095334	20.752374	14.645065	-0.091957	0.027955	2.794992	0.000000	-0.001780	0.000000	-0.000004	-0.000001	0.000000	0.000000
57.429918	20.819348	14.634008	-0.108216	0.005091	2.794397	0.000000	-0.001780	0.000000	-0.000005	-0.000001	0.000000	0.000000
57.727240	20.887995	14.637022	-0.177243	0.023019	2.793868	0.000000	0.005520	0.000000	-0.000005	-0.000001	0.000000	0.000000
58.276300	20.726273	14.892815	0.470043	-0.491643	2.774261	0.000000	-0.076837	0.000000	-0.000005	-0.000001	0.000000	0.000000
58.825360	19.867858	15.729566	1.084128	-1.041323	2.709743	0.000000	-0.157830	0.000000	-0.000006	-0.000000	0.000000	0.000000
59.374420	18.373384	17.206874	1.621636	-1.665174	2.601459	0.000000	-0.236025	0.000000	-0.000006	-0.000000	0.000000	0.000000
59.923480	16.348415	19.429967	2.044599	-2.407632	2.451329	0.000000	-0.310032	0.000000	-0.000006	-0.000000	0.000000	0.000000
60.369440	14.763482	21.405876	1.521964	-2.004354	2.328356	0.000000	-0.241756	0.000000	-0.000006	-0.000000	0.000000	0.000000
60.810400	13.623501	22.962041	1.073069	-1.511255	2.236198	0.000000	-0.176630	0.000000	-0.000006	-0.000000	0.000000	0.000000
61.251360	12.856378	24.051233	0.673198	-0.949394	2.172287	0.000000	-0.113516	0.000000	-0.000006	-0.000001	0.000000	0.000000
61.692320	12.427064	24.623896	0.304084	-0.344337	2.135897	0.000000	-0.051694	0.000000	-0.000007	-0.000001	0.000000	0.000000
62.134530	12.315999	24.653434	-0.021034	0.215872	2.126617	0.000000	0.004323	0.000000	-0.000007	-0.000001	0.000000	0.000000
62.431853	12.335687	24.528819	-0.045186	0.203250	2.127902	0.000000	0.004323	0.000000	-0.000007	-0.000001	0.000000	0.000000
62.765186	12.374837	24.398036	-0.072263	0.189099	2.129343	0.000000	0.004323	0.000000	-0.000007	-0.000001	0.000000	0.000000
63.098520	12.432038	24.276687	-0.099340	0.174948	2.130785	0.000000	0.004323	0.000000	-0.000008	-0.000001	0.000000	0.000000
63.433103	12.507607	24.164370	-0.126519	0.160744	2.132231	0.000000	0.004323	0.000000	-0.000008	-0.000001	0.000000	0.000000
63.730426	12.590022	24.072537	-0.119794	0.089084	2.133517	0.000000	-0.000910	0.000000	-0.000008	-0.000001	0.000000	0.000000
64.171386	12.855999	23.728859	-0.485673	0.687336	2.146654	0.000000	0.060551	0.000000	-0.000009	-0.000001	0.000000	0.000000
64.612346	13.453180	22.869399	-0.873740	1.254314	2.187019	0.000000	0.122700	0.000000	-0.000009	-0.000001	0.000000	0.000000
65.053306	14.408848	21.533261	-1.301727	1.764222	2.255072	0.000000	0.186248	0.000000	-0.000010	-0.000002	0.000000	0.000000
65.494266	15.766665	19.781239	-1.789185	2.193859	2.351587	0.000000	0.251916	0.000000	-0.000011	-0.000002	0.000000	0.000000
65.940226	17.611826	17.668255	-2.363078	2.524432	2.479236	0.000000	0.320856	0.000000	-0.000011	-0.000002	0.000000	0.000000
66.489286	19.977157	15.304478	-1.919386	1.806115	2.635045	0.000000	0.245852	0.000000	-0.000012	-0.000002	0.000000	0.000000
67.038346	21.777477	13.654651	-1.340119	1.216444	2.748412	0.000000	0.166487	0.000000	-0.000013	-0.000001	0.000000	0.000000
67.587406	22.885621	12.601259	-0.666192	0.713418	2.817327	0.000000	0.084169	0.000000	-0.000014	-0.000001	0.000000	0.000000
68.136466	23.223316	12.069272	0.054791	0.261206	2.840567	0.000000	0.000359	0.000000	-0.000014	-0.000000	0.000000	0.000000
68.435038	23.230674	11.902480	-0.018751	0.265887	2.842891	0.000000	0.007781	0.000000	-0.000014	-0.000000	0.000000	0.000000
68.768372	23.247960	11.735217	-0.033105	0.235901	2.845484	0.000000	0.007781	0.000000	-0.000014	-0.000000	0.000000	0.000000
69.101705	23.274815	11.587945	-0.047459	0.205916	2.848078	0.000000	0.007781	0.000000	-0.000015	-0.000000	0.000000	0.000000
69.436288	23.311393	11.460223	-0.061867	0.175819	2.850682	0.000000	0.007781	0.000000	-0.000015	-0.000000	0.000000	0.000000
69.733611	23.351989	11.363625	-0.135692	0.178767	2.852996	0.000000	0.015237	0.000000	-0.000015	-0.000000	0.000000	0.000000
70.282671	23.099938	11.394884	0.592033	-0.236035	2.838183	0.000000	-0.069113	0.000000	-0.000015	0.000000	0.000000	0.000000
