#ParticleID	Turn	x[m]	xp	y[m]	yp	z[m]	dE[GeV]# s	beta_x	beta_y	alpha_x	alpha_y	D_x	D_y	D_px	D_py	orbit_x	orbit_px	orbit_y	orbit_py
0.300000	11.820967	24.989440	-0.011865	-0.027549	2.618073	0.000000	0.000027	0.000000	0.000000	0.000001	0.000000	0.000000
0.601250	11.835795	25.009673	-0.037353	-0.039614	2.618081	0.000000	0.000027	0.000000	0.000001	0.000001	0.000000	0.000000
0.898573	11.865486	25.036770	-0.033412	-0.112918	2.618089	0.000000	-0.006393	0.000000	0.000001	0.000001	0.000000	0.000000
1.339533	12.047169	24.858644	-0.380169	0.515329	2.631563	0.000000	0.067564	0.000000	0.000001	0.000001	0.000000	0.000000
1.780493	12.541140	24.134718	-0.744296	1.120129	2.677788	0.000000	0.142290	0.000000	0.000001	0.000001	0.000000	0.000000
2.221453	13.369965	22.897928	-1.142427	1.673964	2.757289	0.000000	0.218637	0.000000	0.000002	0.000001	0.000000	0.000000
2.662413	14.571511	21.204549	-1.592752	2.151634	2.870972	0.000000	0.297474	0.000000	0.000002	0.000001	0.000000	0.000000
3.108373	16.221444	19.106791	-2.120140	2.532539	3.021995	0.000000	0.380189	0.000000	0.000002	0.000001	0.000000	0.000000
3.657433	18.337185	16.750745	-1.710437	1.783844	3.205469	0.000000	0.287150	0.000000	0.000003	0.000001	0.000000	0.000000
4.206493	19.933612	15.142678	-1.179917	1.162207	3.336384	0.000000	0.189019	0.000000	0.000003	0.000001	0.000000	0.000000
4.755553	20.897963	14.168051	-0.566053	0.623353	3.412418	0.000000	0.087535	0.000000	0.000003	0.000001	0.000000	0.000000
5.304613	21.162120	13.757444	0.087793	0.128898	3.432222	0.000000	-0.015502	0.000000	0.000004	0.000000	0.000000	0.000000
5.603185	21.146929	13.665665	0.018379	0.142550	3.430271	0.000000	-0.006535	0.000000	0.000004	0.000000	0.000000	0.000000
5.936519	21.139932	13.578928	0.002611	0.117662	3.428092	0.000000	-0.006535	0.000000	0.000004	0.000000	0.000000	0.000000
6.269852	21.143448	13.508782	-0.013157	0.092775	3.425914	0.000000	-0.006535	0.000000	0.000004	0.000000	0.000000	0.000000
6.604435	21.157548	13.455059	-0.028985	0.067794	3.423727	0.000000	-0.006535	0.000000	0.000004	0.000000	0.000000	0.000000
6.901758	21.178965	13.421346	-0.098384	0.080661	3.421784	0.000000	0.002405	0.000000	0.000004	0.000000	0.000000	0.000000
7.450818	20.926019	13.593457	0.556345	-0.395976	3.394903	0.000000	-0.100179	0.000000	0.000005	0.000000	0.000000	0.000000
7.999878	19.971526	14.301295	1.171777	-0.900817	3.312102	0.000000	-0.200986	0.000000	0.000005	0.000000	0.000000	0.000000
8.548938	18.382906	15.595280	1.704440	-1.469821	3.174851	0.000000	-0.298228	0.000000	0.000005	-0.000000	0.000000	0.000000
9.097998	16.272371	17.567577	2.116711	-2.143517	2.985584	0.000000	-0.390180	0.000000	0.000005	-0.000000	0.000000	0.000000
9.543958	14.625721	19.325020	1.588788	-1.780635	2.829887	0.000000	-0.308471	0.000000	0.000005	-0.000000	0.000000	0.000000
9.984918	13.427973	20.705452	1.137746	-1.337967	2.711111	0.000000	-0.230758	0.000000	0.000005	0.000000	0.000000	0.000000
10.425878	12.603670	21.667049	0.738683	-0.834423	2.625991	0.000000	-0.155675	0.000000	0.000005	0.000000	0.000000	0.000000
10.866838	12.115152	22.166058	0.373370	-0.292913	2.573558	0.000000	-0.082364	0.000000	0.000005	0.000000	0.000000	0.000000
11.309048	11.939965	22.179257	0.054288	0.207476	2.553195	0.000000	-0.016252	0.000000	0.000005	0.000000	0.000000	0.000000
11.606371	11.915109	22.060039	0.029313	0.193494	2.548362	0.000000	-0.016252	0.000000	0.000005	0.000000	0.000000	0.000000
12.086371	11.906321	21.885120	-0.011006	0.170920	2.540561	0.000000	-0.016252	0.000000	0.000005	0.000000	0.000000	0.000000
12.566371	11.936241	21.731872	-0.051326	0.148347	2.532760	0.000000	-0.016252	0.000000	0.000006	0.000000	0.000000	0.000000
13.046371	12.004867	21.600294	-0.091646	0.125773	2.524959	0.000000	-0.016252	0.000000	0.000006	0.000000	0.000000	0.000000
13.526371	12.112201	21.490387	-0.131965	0.103200	2.517158	0.000000	-0.016252	0.000000	0.000006	0.000000	0.000000	0.000000
14.007621	12.258671	21.401949	-0.172390	0.080568	2.509337	0.000000	-0.016252	0.000000	0.000006	0.000000	0.000000	0.000000
14.304943	12.368608	21.358197	-0.167035	0.014212	2.504505	0.000000	-0.022393	0.000000	0.000006	0.000000	0.000000	0.000000
14.745903	12.674531	21.111884	-0.529364	0.542245	2.510263	0.000000	0.048536	0.000000	0.000007	0.000001	0.000000	0.000000
15.186863	13.309417	20.409030	-0.915878	1.045607	2.547390	0.000000	0.120018	0.000000	0.000007	0.000001	0.000000	0.000000
15.627823	14.302270	19.281614	-1.344235	1.501394	2.616309	0.000000	0.192867	0.000000	0.000007	0.000001	0.000000	0.000000
16.068783	15.698451	17.780933	-1.834007	1.888869	2.717805	0.000000	0.267912	0.000000	0.000008	0.000001	0.000000	0.000000
16.514743	17.585403	15.953763	-2.412327	2.191149	2.854728	0.000000	0.346471	0.000000	0.000008	0.000001	0.000000	0.000000
17.063803	20.008822	13.913497	-1.975302	1.546710	3.021228	0.000000	0.259128	0.000000	0.000009	0.000001	0.000000	0.000000
17.612863	21.872411	12.516616	-1.398751	1.012439	3.138436	0.000000	0.167188	0.000000	0.000009	0.000001	0.000000	0.000000
18.161923	23.044538	11.663622	-0.723399	0.550283	3.204275	0.000000	0.072283	0.000000	0.000010	0.000000	0.000000	0.000000
18.710983	23.442408	11.293760	0.003050	0.127321	3.217575	0.000000	-0.023905	0.000000	0.000010	0.000000	0.000000	0.000000
19.009556	23.480975	11.208199	-0.070975	0.129740	3.212948	0.000000	-0.015498	0.000000	0.000010	0.000000	0.000000	0.000000
19.342889	23.533048	11.131786	-0.085243	0.099499	3.207782	0.000000	-0.015498	0.000000	0.000010	0.000000	0.000000	0.000000
19.676223	23.594632	11.075533	-0.099510	0.069259	3.202615	0.000000	-0.015498	0.000000	0.000010	0.000000	0.000000	0.000000
20.010806	23.666305	11.039207	-0.231087	0.093600	3.197450	0.000000	0.000344	0.000000	0.000010	0.000000	0.000000	0.000000
20.308129	23.807655	10.991626	-0.306521	0.095147	3.197552	0.000000	0.008697	0.000000	0.000010	0.000000	0.000000	0.000000
20.857189	23.733633	11.109473	0.440538	-0.311047	3.176104	0.000000	-0.086709	0.000000	0.000010	-0.000000	0.000000	0.000000
21.406249	22.851553	11.682845	1.156479	-0.739396	3.102617	0.000000	-0.180578	0.000000	0.000010	-0.000000	0.000000	0.000000
21.955309	21.223721	12.752582	1.790732	-1.220411	2.978396	0.000000	-0.271243	0.000000	0.000010	-0.000001	0.000000	0.000000
22.504369	18.965118	14.394880	2.298497	-1.788353	2.805644	0.000000	-0.357098	0.000000	0.000009	-0.000001	0.000000	0.000000
22.950329	17.185192	15.869291	1.706816	-1.503850	2.663689	0.000000	-0.279877	0.000000	0.000009	-0.000001	0.000000	0.000000
23.391289	15.909208	17.044791	1.197811	-1.151779	2.556599	0.000000	-0.206299	0.000000	0.000009	-0.000001	0.000000	0.000000
23.832249	15.056390	17.885410	0.743530	-0.747304	2.481405	0.000000	-0.135071	0.000000	0.000008	-0.000000	0.000000	0.000000
24.273209	14.587773	18.352900	0.323220	-0.308826	2.437252	0.000000	-0.065380	0.000000	0.000008	-0.000000	0.000000	0.000000
24.715418	14.482067	18.425744	-0.046899	0.098452	2.423633	0.000000	-0.002378	0.000000	0.000008	0.000000	0.000000	0.000000
25.012741	14.516073	18.372044	-0.067475	0.082159	2.422926	0.000000	-0.002378	0.000000	0.000008	0.000000	0.000000	0.000000
25.346075	14.568745	18.323360	-0.090543	0.063893	2.422133	0.000000	-0.002378	0.000000	0.000008	0.000000	0.000000	0.000000
25.679408	14.636796	18.286853	-0.113610	0.045627	2.421341	0.000000	-0.002378	0.000000	0.000008	0.000000	0.000000	0.000000
26.013991	14.720269	18.262825	-0.017344	-0.120864	2.420521	0.000000	-0.022015	0.000000	0.000008	-0.000000	0.000000	0.000000
26.311314	14.736589	18.339608	-0.001412	-0.182353	2.413975	0.000000	-0.027934	0.000000	0.000008	-0.000000	0.000000	0.000000
26.752274	14.919407	18.301510	-0.414752	0.268421	2.416770	0.000000	0.040623	0.000000	0.000008	0.000000	0.000000	0.000000
27.193234	15.473704	17.869753	-0.847040	0.706982	2.449870	0.000000	0.109643	0.000000	0.000008	0.000000	0.000000	0.000000
27.634194	16.424804	17.063983	-1.318027	1.113375	2.513650	0.000000	0.179912	0.000000	0.000009	0.000001	0.000000	0.000000
28.075154	17.816159	15.920860	-1.849230	1.469111	2.608837	0.000000	0.252229	0.000000	0.000009	0.000001	0.000000	0.000000
28.521114	19.735513	14.475177	-2.469883	1.758916	2.738120	0.000000	0.327863	0.000000	0.000009	0.000001	0.000000	0.000000
29.070174	22.175025	12.864339	-1.946885	1.192213	2.895467	0.000000	0.244446	0.000000	0.000010	0.000001	0.000000	0.000000
29.619234	23.960848	11.825805	-1.286370	0.710428	3.005754	0.000000	0.156693	0.000000	0.000010	0.000000	0.000000	0.000000
30.168294	24.966839	11.285604	-0.534991	0.279245	3.067024	0.000000	0.066161	0.000000	0.000010	0.000000	0.000000	0.000000
30.717354	25.121941	11.205257	0.254177	-0.132047	3.078191	0.000000	-0.025545	0.000000	0.000010	-0.000000	0.000000	0.000000
31.015927	25.013028	11.274667	0.176236	-0.129699	3.072965	0.000000	-0.017503	0.000000	0.000010	-0.000000	0.000000	0.000000
31.349260	24.900118	11.371154	0.162495	-0.159762	3.067130	0.000000	-0.017503	0.000000	0.000010	-0.000000	0.000000	0.000000
31.682593	24.796368	11.487682	0.148755	-0.189824	3.061296	0.000000	-0.017503	0.000000	0.000010	-0.000000	0.000000	0.000000
32.017177	24.701440	11.624802	0.134963	-0.219999	3.055440	0.000000	-0.017503	0.000000	0.000010	-0.000000	0.000000	0.000000
32.314499	24.624829	11.763596	0.058373	-0.216080	3.050236	0.000000	-0.009534	0.000000	0.000010	-0.000000	0.000000	0.000000
32.863559	24.138853	12.240141	0.821493	-0.656972	3.020114	0.000000	-0.100027	0.000000	0.000010	-0.000001	0.000000	0.000000
33.412619	22.841939	13.223540	1.526587	-1.144660	2.940721	0.000000	-0.188745	0.000000	0.000009	-0.000001	0.000000	0.000000
33.961679	20.825694	14.783839	2.123850	-1.713879	2.813465	0.000000	-0.274116	0.000000	0.000009	-0.000001	0.000000	0.000000
34.510739	18.232537	17.032175	2.571095	-2.405173	2.640603	0.000000	-0.354625	0.000000	0.000008	-0.000001	0.000000	0.000000
34.956699	16.216301	19.043201	1.966217	-2.085428	2.498799	0.000000	-0.281684	0.000000	0.000008	-0.000001	0.000000	0.000000
35.397659	14.712865	20.706204	1.456178	-1.671544	2.389972	0.000000	-0.212379	0.000000	0.000007	-0.000001	0.000000	0.000000
35.838619	13.628316	21.969135	1.012669	-1.181607	2.311144	0.000000	-0.145492	0.000000	0.000007	-0.000001	0.000000	0.000000
36.279579	12.913104	22.774532	0.615425	-0.637907	2.261417	0.000000	-0.080263	0.000000	0.000006	-0.000001	0.000000	0.000000
36.721789	12.533862	23.086055	0.276928	-0.121847	2.240198	0.000000	-0.021442	0.000000	0.000006	-0.000000	0.000000	0.000000
37.019112	12.376782	23.162397	0.251387	-0.134917	2.233823	0.000000	-0.021442	0.000000	0.000006	-0.000000	0.000000	0.000000
37.352445	12.218735	23.257226	0.222753	-0.149570	2.226676	0.000000	-0.021442	0.000000	0.000006	-0.000000	0.000000	0.000000
37.685779	12.079778	23.361824	0.194119	-0.164223	2.219529	0.000000	-0.021442	0.000000	0.000006	-0.000000	0.000000	0.000000
38.020362	11.959496	23.476638	0.165378	-0.178931	2.212355	0.000000	-0.021442	0.000000	0.000005	-0.000000	0.000000	0.000000
38.317684	11.868749	23.586924	0.168941	-0.249841	2.205980	0.000000	-0.026851	0.000000	0.000005	-0.000001	0.000000	0.000000
38.758644	11.871101	23.546018	-0.174295	0.342254	2.208069	0.000000	0.036335	0.000000	0.000005	-0.000000	0.000000	0.000000
39.199604	12.178514	22.987830	-0.525495	0.918777	2.238085	0.000000	0.099935	0.000000	0.000005	-0.000000	0.000000	0.000000
39.640564	12.805034	21.937756	-0.900703	1.453496	2.296370	0.000000	0.164672	0.000000	0.000005	-0.000000	0.000000	0.000000
40.081524	13.779283	20.443575	-1.317061	1.922082	2.383588	0.000000	0.231286	0.000000	0.000005	0.000000	0.000000	0.000000
40.527484	15.163344	18.550703	-1.797418	2.304496	2.502204	0.000000	0.300939	0.000000	0.000005	0.000000	0.000000	0.000000
41.076544	16.929664	16.423633	-1.400528	1.592393	2.646905	0.000000	0.225371	0.000000	0.000005	-0.000000	0.000000	0.000000
41.625604	18.202916	15.012038	-0.904712	0.993712	2.748954	0.000000	0.145805	0.000000	0.000005	-0.000000	0.000000	0.000000
42.174664	18.893164	14.215375	-0.344991	0.465811	2.806542	0.000000	0.063653	0.000000	0.000005	-0.000000	0.000000	0.000000
42.723724	18.951651	13.976898	0.239098	-0.028911	2.818646	0.000000	-0.019628	0.000000	0.000005	-0.000000	0.000000	0.000000
43.022297	18.843316	13.978734	0.173262	-0.013756	2.814984	0.000000	-0.012264	0.000000	0.000004	-0.000000	0.000000	0.000000
43.502297	18.689579	14.008425	0.147024	-0.048100	2.809098	0.000000	-0.012264	0.000000	0.000004	-0.000000	0.000000	0.000000
43.982297	18.561030	14.071087	0.120786	-0.082445	2.803212	0.000000	-0.012264	0.000000	0.000004	-0.000000	0.000000	0.000000
44.462297	18.457670	14.166719	0.094548	-0.116789	2.797325	0.000000	-0.012264	0.000000	0.000004	-0.000000	0.000000	0.000000
44.942297	18.379498	14.295322	0.068310	-0.151134	2.791439	0.000000	-0.012264	0.000000	0.000003	-0.000000	0.000000	0.000000
45.423547	18.326636	14.457180	-0.048796	-0.113938	2.785555	0.000000	0.001538	0.000000	0.000003	-0.000000	0.000000	0.000000
45.720870	18.360488	14.531127	-0.113030	-0.096804	2.786012	0.000000	0.008817	0.000000	0.000003	-0.000000	0.000000	0.000000
46.269930	18.175449	14.918507	0.448044	-0.612893	2.768279	0.000000	-0.073316	0.000000	0.000003	-0.000001	0.000000	0.000000
46.818990	17.388096	15.893117	0.977470	-1.172637	2.705742	0.000000	-0.154148	0.000000	0.000003	-0.000001	0.000000	0.000000
47.368050	16.054042	17.524377	1.437852	-1.815906	2.599509	0.000000	-0.232246	0.000000	0.000002	-0.000001	0.000000	0.000000
47.917110	14.267519	19.928479	1.796672	-2.588517	2.451466	0.000000	-0.306224	0.000000	0.000002	-0.000001	0.000000	0.000000
48.363070	12.877205	22.065976	1.331949	-2.184359	2.330195	0.000000	-0.237922	0.000000	0.000001	-0.000001	0.000000	0.000000
48.804030	11.882734	23.777436	0.931847	-1.682085	2.239742	0.000000	-0.172726	0.000000	0.000001	-0.000001	0.000000	0.000000
49.244990	11.221085	25.010362	0.574319	-1.103279	2.177576	0.000000	-0.109498	0.000000	0.000001	-0.000001	0.000000	0.000000
49.685950	10.862030	25.708657	0.243029	-0.474274	2.142991	0.000000	-0.047517	0.000000	0.000000	-0.000001	0.000000	0.000000
50.128160	10.789290	25.840266	-0.050815	0.112893	2.135602	0.000000	0.008685	0.000000	0.000000	-0.000001	0.000000	0.000000
50.425482	10.827721	25.776600	-0.078443	0.101240	2.138184	0.000000	0.008685	0.000000	-0.000000	-0.000001	0.000000	0.000000
50.758816	10.890341	25.713461	-0.109418	0.088176	2.141080	0.000000	0.008685	0.000000	-0.000000	-0.000001	0.000000	0.000000
51.092149	10.973611	25.659032	-0.140392	0.075112	2.143975	0.000000	0.008685	0.000000	-0.000000	-0.000001	0.000000	0.000000
51.426732	11.077735	25.613676	-0.081613	-0.145792	2.146859	0.000000	-0.008731	0.000000	-0.000001	-0.000001	0.000000	0.000000
51.724055	11.134299	25.703895	-0.081327	-0.220681	2.144263	0.000000	-0.013990	0.000000	-0.000001	-0.000001	0.000000	0.000000
52.165015	11.351387	25.612566	-0.412849	0.427008	2.151683	0.000000	0.047674	0.000000	-0.000001	-0.000001	0.000000	0.000000
52.605975	11.868032	24.956444	-0.763233	1.055269	2.186388	0.000000	0.109880	0.000000	-0.000001	-0.000001	0.000000	0.000000
53.046935	12.707838	23.765383	-1.148487	1.635516	2.248773	0.000000	0.173338	0.000000	-0.000002	-0.000001	0.000000	0.000000
53.487895	13.909173	22.093576	-1.586212	2.141348	2.339549	0.000000	0.238771	0.000000	-0.000002	-0.000001	0.000000	0.000000
53.933855	15.547515	19.992090	-2.100639	2.551086	2.461254	0.000000	0.307321	0.000000	-0.000002	-0.000001	0.000000	0.000000
54.482915	17.656809	17.627421	-1.718266	1.781096	2.609812	0.000000	0.233017	0.000000	-0.000003	-0.000001	0.000000	0.000000
55.031975	19.276674	16.034085	-1.214523	1.137969	2.716377	0.000000	0.154580	0.000000	-0.000003	-0.000001	0.000000	0.000000
55.581035	20.292692	15.098592	-0.624992	0.575897	2.779057	0.000000	0.073401	0.000000	-0.000004	-0.000001	0.000000	0.000000
56.130095	20.633096	14.754310	0.008686	0.054844	2.796742	0.000000	-0.009079	0.000000	-0.000004	-0.000000	0.000000	0.000000
56.428668	20.664432	14.704633	-0.059727	0.072983	2.796213	0.000000	-0.001772	0.000000	-0.000004	-0.000000	0.000000	0.000000
56.762001	20.709646	14.663574	-0.075915	0.050194	2.795622	0.000000	-0.001772	0.000000	-0.000004	-0.000000	0.000000	0.000000
57.095334	20.765653	14.637708	-0.092104	0.027405	2.795032	0.000000	-0.001772	0.000000	-0.000004	-0.000000	0.000000	0.000000
57.429918	20.832722	14.627023	-0.108353	0.004530	2.794439	0.000000	-0.001772	0.000000	-0.000005	-0.000000	0.000000	0.000000
57.727240	20.901446	14.630373	-0.177406	0.022430	2.793913	0.000000	0.005528	0.000000	-0.000005	-0.000000	0.000000	0.000000
58.276300	20.739654	14.886710	0.470332	-0.492051	2.774310	0.000000	-0.076830	0.000000	-0.000005	-0.000000	0.000000	0.000000
58.825360	19.880682	15.723825	1.084849	-1.041581	2.709795	0.000000	-0.157825	0.000000	-0.000005	-0.000000	0.000000	0.000000
59.374420	18.385203	17.201343	1.622736	-1.665300	2.601513	0.000000	-0.236021	0.000000	-0.000005	0.000000	0.000000	0.000000
59.923480	16.358850	19.424505	2.046002	-2.407634	2.451385	0.000000	-0.310030	0.000000	-0.000005	0.000000	0.000000	0.000000
60.369440	14.772807	21.400500	1.523060	-2.004542	2.328413	0.000000	-0.241752	0.000000	-0.000005	0.000000	0.000000	0.000000
60.810400	13.631976	22.956908	1.073910	-1.511617	2.236256	0.000000	-0.176625	0.000000	-0.000005	-0.000000	0.000000	0.000000
61.251360	12.864208	24.046491	0.673823	-0.949915	2.172348	0.000000	-0.113509	0.000000	-0.000005	-0.000000	0.000000	0.000000
61.692320	12.434428	24.619675	0.304521	-0.344993	2.135961	0.000000	-0.051686	0.000000	-0.000005	-0.000000	0.000000	0.000000
62.134530	12.323052	24.649841	-0.020748	0.215121	2.126684	0.000000	0.004332	0.000000	-0.000005	-0.000000	0.000000	0.000000
62.431853	12.342566	24.525673	-0.044886	0.202501	2.127973	0.000000	0.004332	0.000000	-0.000005	-0.000000	0.000000	0.000000
62.765186	12.381511	24.395388	-0.071947	0.188352	2.129417	0.000000	0.004332	0.000000	-0.000006	-0.000000	0.000000	0.000000
63.098520	12.438496	24.274536	-0.099009	0.174204	2.130861	0.000000	0.004332	0.000000	-0.000006	-0.000000	0.000000	0.000000
63.433103	12.513838	24.162717	-0.126171	0.160002	2.132311	0.000000	0.004332	0.000000	-0.000006	-0.000000	0.000000	0.000000
63.730426	12.596042	24.071324	-0.119418	0.088349	2.133599	0.000000	-0.000900	0.000000	-0.000006	-0.000000	0.000000	0.000000
64.171386	12.861745	23.728304	-0.485424	0.686587	2.146741	0.000000	0.060562	0.000000	-0.000006	-0.000001	0.000000	0.000000
64.612346	13.458759	22.869497	-0.873608	1.253587	2.187112	0.000000	0.122715	0.000000	-0.000006	-0.000001	0.000000	0.000000
65.053306	14.414360	21.533979	-1.301705	1.763549	2.255171	0.000000	0.186264	0.000000	-0.000007	-0.000001	0.000000	0.000000
65.494266	15.772206	19.782515	-1.789273	2.193271	2.351694	0.000000	0.251936	0.000000	-0.000007	-0.000001	0.000000	0.000000
65.940226	17.617497	17.670007	-2.363280	2.523956	2.479352	0.000000	0.320878	0.000000	-0.000008	-0.000001	0.000000	0.000000
66.489286	19.982927	15.306736	-1.919364	1.805664	2.635171	0.000000	0.245870	0.000000	-0.000008	-0.000001	0.000000	0.000000
67.038346	21.783100	13.657406	-1.339874	1.215985	2.748547	0.000000	0.166501	0.000000	-0.000009	-0.000001	0.000000	0.000000
67.587406	22.890860	12.604537	-0.665741	0.712918	2.817468	0.000000	0.084179	0.000000	-0.000009	-0.000000	0.000000	0.000000
68.136466	23.227961	12.073137	0.055415	0.260631	2.840712	0.000000	0.000363	0.000000	-0.000009	-0.000000	0.000000	0.000000
68.435038	23.234952	11.906678	-0.018134	0.265337	2.843037	0.000000	0.007786	0.000000	-0.000010	-0.000000	0.000000	0.000000
68.768372	23.251825	11.739776	-0.032485	0.235370	2.845632	0.000000	0.007786	0.000000	-0.000010	-0.000000	0.000000	0.000000
69.101705	23.278265	11.592851	-0.046836	0.205404	2.848228	0.000000	0.007786	0.000000	-0.000010	-0.000000	0.000000	0.000000
69.436288	23.314426	11.465466	-0.061241	0.175325	2.850833	0.000000	0.007786	0.000000	-0.000010	-0.000000	0.000000	0.000000
69.733611	23.354648	11.369157	-0.135068	0.178304	2.853148	0.000000	0.015242	0.000000	-0.000010	-0.000000	0.000000	0.000000
70.282671	23.101869	11.401011	0.592727	-0.236663	2.838337	0.000000	-0.069113	0.000000	-0.000010	0.000000	0.000000	0.000000
