#ParticleID	Turn	x[m]	xp	y[m]	yp	z[m]	dE[GeV]# s	beta_x	beta_y	alpha_x	alpha_y	D_x	D_y	D_px	D_py	orbit_x	orbit_px	orbit_y	orbit_py
0.300000	11.829646	24.955882	-0.013046	-0.027740	2.618234	0.000000	-0.000035	0.000000	0.000000	0.000000	0.000000	0.000000
0.601250	11.845179	24.976234	-0.038516	-0.039820	2.618224	0.000000	-0.000035	0.000000	0.000000	0.000000	0.000000	0.000000
0.898573	11.875556	25.003458	-0.034531	-0.113059	2.618213	0.000000	-0.006455	0.000000	0.000000	0.000000	0.000000	0.000000
1.339533	12.058336	24.825846	-0.381547	0.514311	2.631660	0.000000	0.067504	0.000000	0.000000	0.000000	0.000000	0.000000
1.780493	12.553659	24.103189	-0.745995	1.118280	2.677859	0.000000	0.142233	0.000000	0.000001	0.000000	0.000000	0.000000
2.221453	13.384152	22.868366	-1.144526	1.671368	2.757336	0.000000	0.218581	0.000000	0.000001	0.000000	0.000000	0.000000
2.662413	14.587760	21.177563	-1.595346	2.148411	2.870995	0.000000	0.297419	0.000000	0.000001	0.000000	0.000000	0.000000
3.108373	16.240272	19.082908	-2.123352	2.528832	3.021993	0.000000	0.380134	0.000000	0.000001	0.000000	0.000000	0.000000
3.657433	18.359300	16.730405	-1.713176	1.781060	3.205438	0.000000	0.287096	0.000000	0.000001	0.000000	0.000000	0.000000
4.206493	19.958385	15.124981	-1.181989	1.160149	3.336324	0.000000	0.188966	0.000000	0.000001	0.000000	0.000000	0.000000
4.755553	20.924577	14.152285	-0.567313	0.621873	3.412330	0.000000	0.087485	0.000000	0.000001	0.000000	0.000000	0.000000
5.304613	21.189627	13.743035	0.087436	0.127892	3.432107	0.000000	-0.015549	0.000000	0.000002	0.000000	0.000000	0.000000
5.603185	21.174687	13.651884	0.017967	0.141491	3.430142	0.000000	-0.006582	0.000000	0.000002	0.000000	0.000000	0.000000
5.936519	21.167958	13.565858	0.002220	0.116586	3.427948	0.000000	-0.006582	0.000000	0.000002	0.000000	0.000000	0.000000
6.269852	21.171727	13.496436	-0.013527	0.091680	3.425754	0.000000	-0.006582	0.000000	0.000002	0.000000	0.000000	0.000000
6.604435	21.186068	13.443451	-0.029334	0.066681	3.423552	0.000000	-0.006582	0.000000	0.000002	0.000000	0.000000	0.000000
6.901758	21.207687	13.410404	-0.098791	0.079505	3.421595	0.000000	0.002358	0.000000	0.000002	0.000000	0.000000	0.000000
7.450818	20.954657	13.583619	0.556904	-0.396842	3.394689	0.000000	-0.100219	0.000000	0.000002	0.000000	0.000000	0.000000
7.999878	19.999035	14.292280	1.173262	-0.901456	3.311868	0.000000	-0.201019	0.000000	0.000002	0.000000	0.000000	0.000000
8.548938	18.408321	15.586862	1.706747	-1.470278	3.174601	0.000000	-0.298253	0.000000	0.000002	0.000000	0.000000	0.000000
9.097998	16.294875	17.559577	2.119675	-2.143824	2.985322	0.000000	-0.390197	0.000000	0.000002	-0.000000	0.000000	0.000000
9.543958	14.645883	19.317427	1.591096	-1.781240	2.829615	0.000000	-0.308495	0.000000	0.000002	-0.000000	0.000000	0.000000
9.984918	13.446347	20.698513	1.139507	-1.338839	2.710827	0.000000	-0.230790	0.000000	0.000002	0.000000	0.000000	0.000000
10.425878	12.620702	21.660982	0.739978	-0.835522	2.625692	0.000000	-0.155713	0.000000	0.000002	0.000000	0.000000	0.000000
10.866838	12.131226	22.161042	0.374257	-0.294190	2.573240	0.000000	-0.082411	0.000000	0.000002	0.000000	0.000000	0.000000
11.309048	11.955419	22.175427	0.054848	0.206088	2.552854	0.000000	-0.016306	0.000000	0.000002	0.000000	0.000000	0.000000
11.606371	11.930220	22.057034	0.029904	0.192111	2.548006	0.000000	-0.016306	0.000000	0.000002	0.000000	0.000000	0.000000
12.086371	11.920842	21.883439	-0.010366	0.169546	2.540179	0.000000	-0.016306	0.000000	0.000002	0.000000	0.000000	0.000000
12.566371	11.950124	21.731506	-0.050636	0.146981	2.532351	0.000000	-0.016306	0.000000	0.000002	0.000000	0.000000	0.000000
13.046371	12.018064	21.601235	-0.090906	0.124416	2.524524	0.000000	-0.016306	0.000000	0.000002	0.000000	0.000000	0.000000
13.526371	12.124664	21.492627	-0.131176	0.101851	2.516697	0.000000	-0.016306	0.000000	0.000003	0.000000	0.000000	0.000000
14.007621	12.270351	21.405482	-0.171551	0.079228	2.508849	0.000000	-0.016306	0.000000	0.000003	0.000000	0.000000	0.000000
14.304943	12.379780	21.362526	-0.166137	0.012864	2.504001	0.000000	-0.022447	0.000000	0.000003	0.000000	0.000000	0.000000
14.745903	12.685013	21.117341	-0.528692	0.541045	2.509733	0.000000	0.048469	0.000000	0.000003	0.000000	0.000000	0.000000
15.186863	13.319394	20.415461	-0.915401	1.044608	2.546828	0.000000	0.119937	0.000000	0.000003	0.000000	0.000000	0.000000
15.627823	14.311904	19.288821	-1.343932	1.500642	2.615708	0.000000	0.192771	0.000000	0.000003	0.000000	0.000000	0.000000
16.068783	15.707888	17.788681	-1.833863	1.888398	2.717158	0.000000	0.267800	0.000000	0.000003	0.000000	0.000000	0.000000
16.514743	17.594780	15.961796	-2.412336	2.190983	2.854027	0.000000	0.346342	0.000000	0.000004	0.000001	0.000000	0.000000
17.063803	20.017981	13.921789	-1.974900	1.546403	3.020462	0.000000	0.259022	0.000000	0.000004	0.000000	0.000000	0.000000
17.612863	21.880915	12.525332	-1.397967	1.011969	3.137620	0.000000	0.167108	0.000000	0.000004	0.000000	0.000000	0.000000
18.161923	23.051995	11.672959	-0.722288	0.549616	3.203422	0.000000	0.072229	0.000000	0.000004	0.000000	0.000000	0.000000
18.710983	23.448500	11.303958	0.004410	0.126411	3.216701	0.000000	-0.023930	0.000000	0.000004	0.000000	0.000000	0.000000
19.009556	23.486265	11.218914	-0.069629	0.128890	3.212065	0.000000	-0.015526	0.000000	0.000004	0.000000	0.000000	0.000000
19.342889	23.537438	11.143056	-0.083890	0.098685	3.206890	0.000000	-0.015526	0.000000	0.000004	0.000000	0.000000	0.000000
19.676223	23.598118	11.087334	-0.098152	0.068479	3.201715	0.000000	-0.015526	0.000000	0.000004	0.000000	0.000000	0.000000
20.010806	23.668881	11.051518	-0.229736	0.092917	3.196540	0.000000	0.000312	0.000000	0.000004	0.000000	0.000000	0.000000
20.308129	23.809424	11.004333	-0.305168	0.094532	3.196633	0.000000	0.008664	0.000000	0.000004	0.000000	0.000000	0.000000
20.857189	23.733892	11.123054	0.441920	-0.312033	3.175174	0.000000	-0.086713	0.000000	0.000004	-0.000000	0.000000	0.000000
21.406249	22.850323	11.697744	1.157793	-0.740824	3.101694	0.000000	-0.180552	0.000000	0.000004	-0.000000	0.000000	0.000000
21.955309	21.221129	12.769337	1.791885	-1.222383	2.977495	0.000000	-0.271188	0.000000	0.000004	-0.000000	0.000000	0.000000
22.504369	18.961387	14.414161	2.299407	-1.791009	2.804781	0.000000	-0.357014	0.000000	0.000004	-0.000000	0.000000	0.000000
22.950329	17.180656	15.890754	1.707717	-1.506066	2.662859	0.000000	-0.279815	0.000000	0.000004	-0.000000	0.000000	0.000000
23.391289	15.903867	17.067976	1.198744	-1.153455	2.555791	0.000000	-0.206258	0.000000	0.000004	-0.000000	0.000000	0.000000
23.832249	15.050195	17.909805	0.744538	-0.748363	2.480611	0.000000	-0.135050	0.000000	0.000004	-0.000000	0.000000	0.000000
24.273209	14.580640	18.377939	0.324349	-0.309221	2.436463	0.000000	-0.065380	0.000000	0.000004	-0.000000	0.000000	0.000000
24.715418	14.473862	18.450831	-0.045616	0.098675	2.422839	0.000000	-0.002396	0.000000	0.000004	0.000000	0.000000	0.000000
25.012741	14.507108	18.396991	-0.066201	0.082404	2.422127	0.000000	-0.002396	0.000000	0.000004	0.000000	0.000000	0.000000
25.346075	14.558935	18.348136	-0.089279	0.064162	2.421328	0.000000	-0.002396	0.000000	0.000004	0.000000	0.000000	0.000000
25.679408	14.626147	18.311442	-0.112357	0.045920	2.420530	0.000000	-0.002396	0.000000	0.000004	0.000000	0.000000	0.000000
26.013991	14.708784	18.287211	-0.016194	-0.120745	2.419703	0.000000	-0.022026	0.000000	0.000004	-0.000000	0.000000	0.000000
26.311314	14.724426	18.363915	-0.000306	-0.182273	2.413154	0.000000	-0.027944	0.000000	0.000004	-0.000000	0.000000	0.000000
26.752274	14.906133	18.325456	-0.413328	0.269157	2.415940	0.000000	0.040592	0.000000	0.000004	0.000000	0.000000	0.000000
27.193234	15.459011	17.892773	-0.845235	0.708340	2.449021	0.000000	0.109590	0.000000	0.000004	0.000000	0.000000	0.000000
27.634194	16.408321	17.085551	-1.315757	1.115295	2.512773	0.000000	0.179836	0.000000	0.000004	0.000000	0.000000	0.000000
28.075154	17.797433	15.940518	-1.846393	1.471504	2.607922	0.000000	0.252131	0.000000	0.000004	0.000000	0.000000	0.000000
28.521114	19.713952	14.492529	-2.466342	1.761675	2.737156	0.000000	0.327740	0.000000	0.000004	0.000000	0.000000	0.000000
29.070174	22.149855	12.879035	-1.943891	1.194319	2.894445	0.000000	0.244355	0.000000	0.000004	0.000000	0.000000	0.000000
29.619234	23.932789	11.838475	-1.284134	0.712033	3.004691	0.000000	0.156636	0.000000	0.000004	0.000000	0.000000	0.000000
30.168294	24.936817	11.296734	-0.533672	0.280463	3.065940	0.000000	0.066139	0.000000	0.000004	0.000000	0.000000	0.000000
30.717354	25.091020	11.215223	0.254486	-0.131131	3.077104	0.000000	-0.025532	0.000000	0.000004	-0.000000	0.000000	0.000000
31.015927	24.981880	11.284060	0.176606	-0.128727	3.071881	0.000000	-0.017492	0.000000	0.000004	-0.000000	0.000000	0.000000
31.349260	24.868729	11.379888	0.162847	-0.158756	3.066051	0.000000	-0.017492	0.000000	0.000004	-0.000000	0.000000	0.000000
31.682593	24.764751	11.495735	0.149088	-0.188786	3.060220	0.000000	-0.017492	0.000000	0.000004	-0.000000	0.000000	0.000000
32.017177	24.669608	11.632150	0.135277	-0.218928	3.054368	0.000000	-0.017492	0.000000	0.000004	-0.000000	0.000000	0.000000
32.314499	24.592815	11.770298	0.058750	-0.214961	3.049167	0.000000	-0.009526	0.000000	0.000004	-0.000000	0.000000	0.000000
32.863559	24.107011	12.245693	0.820803	-0.655982	3.019059	0.000000	-0.099984	0.000000	0.000004	-0.000000	0.000000	0.000000
33.412619	22.811421	13.228042	1.524879	-1.143727	2.939698	0.000000	-0.188669	0.000000	0.000004	-0.000000	0.000000	0.000000
33.961679	20.797559	14.787318	2.121245	-1.712937	2.812493	0.000000	-0.274008	0.000000	0.000004	-0.000000	0.000000	0.000000
34.510739	18.207673	17.034583	2.567777	-2.404155	2.639698	0.000000	-0.354486	0.000000	0.000004	-0.000001	0.000000	0.000000
34.956699	16.194058	19.044612	1.963637	-2.084219	2.497951	0.000000	-0.281567	0.000000	0.000003	-0.000001	0.000000	0.000000
35.397659	14.692619	20.706486	1.454213	-1.670202	2.389171	0.000000	-0.212283	0.000000	0.000003	-0.000000	0.000000	0.000000
35.838619	13.609567	21.968196	1.011228	-1.180191	2.310380	0.000000	-0.145417	0.000000	0.000003	-0.000000	0.000000	0.000000
36.279579	12.895420	22.772337	0.614443	-0.636483	2.260682	0.000000	-0.080208	0.000000	0.000003	-0.000000	0.000000	0.000000
36.721789	12.516860	23.082622	0.276319	-0.120474	2.239483	0.000000	-0.021403	0.000000	0.000003	-0.000000	0.000000	0.000000
37.019112	12.360150	23.158146	0.250752	-0.133541	2.233119	0.000000	-0.021403	0.000000	0.000003	-0.000000	0.000000	0.000000
37.352445	12.202536	23.252057	0.222088	-0.148192	2.225985	0.000000	-0.021403	0.000000	0.000003	-0.000000	0.000000	0.000000
37.685779	12.064032	23.355735	0.193424	-0.162842	2.218851	0.000000	-0.021403	0.000000	0.000002	-0.000000	0.000000	0.000000
38.020362	11.944226	23.469624	0.164652	-0.177548	2.211690	0.000000	-0.021403	0.000000	0.000002	-0.000000	0.000000	0.000000
38.317684	11.853918	23.579088	0.168153	-0.248437	2.205326	0.000000	-0.026811	0.000000	0.000002	-0.000000	0.000000	0.000000
38.758644	11.856818	23.537039	-0.174754	0.343431	2.207429	0.000000	0.036358	0.000000	0.000002	-0.000000	0.000000	0.000000
39.199604	12.164498	22.977933	-0.525644	0.919673	2.237452	0.000000	0.099941	0.000000	0.000002	-0.000000	0.000000	0.000000
39.640564	12.791016	21.927209	-0.900551	1.454071	2.295736	0.000000	0.164663	0.000000	0.000002	-0.000000	0.000000	0.000000
40.081524	13.764996	20.432673	-1.316600	1.922310	2.382946	0.000000	0.231260	0.000000	0.000002	0.000000	0.000000	0.000000
40.527484	15.148500	18.539758	-1.796626	2.304363	2.501547	0.000000	0.300896	0.000000	0.000002	0.000000	0.000000	0.000000
41.076544	16.914248	16.412692	-1.400285	1.592519	2.646230	0.000000	0.225350	0.000000	0.000002	-0.000000	0.000000	0.000000
41.625604	18.187544	15.000813	-0.905035	0.994106	2.748274	0.000000	0.145806	0.000000	0.000002	-0.000000	0.000000	0.000000
42.174664	18.878449	14.203557	-0.345857	0.466502	2.805868	0.000000	0.063676	0.000000	0.000002	-0.000000	0.000000	0.000000
42.723724	18.938160	13.964138	0.237750	-0.027875	2.817990	0.000000	-0.019584	0.000000	0.000002	-0.000000	0.000000	0.000000
43.022297	18.830610	13.965381	0.171944	-0.012773	2.814341	0.000000	-0.012221	0.000000	0.000002	-0.000000	0.000000	0.000000
43.502297	18.678141	13.994143	0.145700	-0.047149	2.808476	0.000000	-0.012221	0.000000	0.000002	-0.000000	0.000000	0.000000
43.982297	18.550866	14.055907	0.119456	-0.081525	2.802610	0.000000	-0.012221	0.000000	0.000002	-0.000000	0.000000	0.000000
44.462297	18.448786	14.150672	0.093212	-0.115902	2.796744	0.000000	-0.012221	0.000000	0.000002	-0.000000	0.000000	0.000000
44.942297	18.371899	14.278438	0.066968	-0.150278	2.790878	0.000000	-0.012221	0.000000	0.000002	-0.000000	0.000000	0.000000
45.423547	18.320333	14.439488	-0.050114	-0.113202	2.785014	0.000000	0.001578	0.000000	0.000001	-0.000000	0.000000	0.000000
45.720870	18.354970	14.513003	-0.114341	-0.096137	2.785483	0.000000	0.008855	0.000000	0.000001	-0.000000	0.000000	0.000000
46.269930	18.171462	14.899343	0.446585	-0.611654	2.767776	0.000000	-0.073260	0.000000	0.000001	-0.000000	0.000000	0.000000
46.818990	17.385745	15.872241	0.975966	-1.170738	2.705273	0.000000	-0.154076	0.000000	0.000001	-0.000000	0.000000	0.000000
47.368050	16.053319	17.500994	1.436409	-1.813211	2.599084	0.000000	-0.232160	0.000000	0.000001	-0.000000	0.000000	0.000000
47.917110	14.268299	19.901615	1.795393	-2.584835	2.451090	0.000000	-0.306125	0.000000	0.000001	-0.000000	0.000000	0.000000
48.363070	12.879077	22.036078	1.330771	-2.181264	2.329862	0.000000	-0.237832	0.000000	0.000001	-0.000000	0.000000	0.000000
48.804030	11.885620	23.745120	0.930716	-1.679717	2.239446	0.000000	-0.172645	0.000000	0.000001	-0.000000	0.000000	0.000000
49.244990	11.224967	24.976318	0.573183	-1.101744	2.177315	0.000000	-0.109424	0.000000	0.000000	-0.000000	0.000000	0.000000
49.685950	10.866935	25.673654	0.241836	-0.473642	2.142760	0.000000	-0.047450	0.000000	0.000000	-0.000000	0.000000	0.000000
50.128160	10.795295	25.805117	-0.052105	0.112679	2.135400	0.000000	0.008748	0.000000	0.000000	-0.000000	0.000000	0.000000
50.425482	10.834490	25.741583	-0.079721	0.101010	2.138001	0.000000	0.008748	0.000000	0.000000	-0.000000	0.000000	0.000000
50.758816	10.897958	25.678603	-0.110683	0.087929	2.140917	0.000000	0.008748	0.000000	-0.000000	-0.000000	0.000000	0.000000
51.092149	10.982067	25.624344	-0.141644	0.074848	2.143833	0.000000	0.008748	0.000000	-0.000000	-0.000000	0.000000	0.000000
51.426732	11.087024	25.579170	-0.082777	-0.145793	2.146738	0.000000	-0.008668	0.000000	-0.000000	-0.000000	0.000000	0.000000
51.724055	11.144275	25.669395	-0.082448	-0.220613	2.144161	0.000000	-0.013926	0.000000	-0.000000	-0.000000	0.000000	0.000000
52.165015	11.362461	25.578409	-0.414227	0.426164	2.151609	0.000000	0.047736	0.000000	-0.000000	-0.000000	0.000000	0.000000
52.605975	11.880457	24.923421	-0.764930	1.053552	2.186340	0.000000	0.109941	0.000000	-0.000001	-0.000000	0.000000	0.000000
53.046935	12.721929	23.734232	-1.150581	1.633003	2.248752	0.000000	0.173398	0.000000	-0.000001	-0.000000	0.000000	0.000000
53.487895	13.925320	22.064950	-1.588799	2.138155	2.339553	0.000000	0.238830	0.000000	-0.000001	-0.000000	0.000000	0.000000
53.933855	15.566235	19.966565	-2.103842	2.547356	2.461284	0.000000	0.307381	0.000000	-0.000001	-0.000000	0.000000	0.000000
54.482915	17.678808	17.605442	-1.720999	1.778328	2.609875	0.000000	0.233075	0.000000	-0.000001	-0.000000	0.000000	0.000000
55.031975	19.301327	16.014710	-1.216593	1.135966	2.716470	0.000000	0.154636	0.000000	-0.000001	-0.000000	0.000000	0.000000
55.581035	20.319186	15.081064	-0.626254	0.574516	2.779180	0.000000	0.073453	0.000000	-0.000002	-0.000000	0.000000	0.000000
56.130095	20.660488	14.738002	0.008321	0.053988	2.796892	0.000000	-0.009032	0.000000	-0.000002	-0.000000	0.000000	0.000000
56.428668	20.692078	14.688868	-0.060143	0.072065	2.796377	0.000000	-0.001724	0.000000	-0.000002	-0.000000	0.000000	0.000000
56.762001	20.737562	14.648429	-0.076310	0.049254	2.795803	0.000000	-0.001724	0.000000	-0.000002	-0.000000	0.000000	0.000000
57.095334	20.793825	14.623197	-0.092478	0.026443	2.795228	0.000000	-0.001724	0.000000	-0.000002	-0.000000	0.000000	0.000000
57.429918	20.861138	14.613162	-0.108706	0.003547	2.794651	0.000000	-0.001724	0.000000	-0.000002	-0.000000	0.000000	0.000000
57.727240	20.930067	14.617103	-0.177814	0.021393	2.794139	0.000000	0.005577	0.000000	-0.000002	-0.000000	0.000000	0.000000
58.276300	20.768194	14.874374	0.470886	-0.492726	2.774560	0.000000	-0.076789	0.000000	-0.000002	-0.000000	0.000000	0.000000
58.825360	19.908100	15.712053	1.086326	-1.041940	2.710065	0.000000	-0.157793	0.000000	-0.000002	-0.000000	0.000000	0.000000
59.374420	18.410537	17.189806	1.625033	-1.665369	2.601799	0.000000	-0.235998	0.000000	-0.000002	0.000000	0.000000	0.000000
59.923480	16.381285	19.412889	2.048955	-2.407419	2.451680	0.000000	-0.310017	0.000000	-0.000002	0.000000	0.000000	0.000000
60.369440	14.792909	21.388858	1.525358	-2.004701	2.328716	0.000000	-0.241731	0.000000	-0.000002	0.000000	0.000000	0.000000
60.810400	13.650298	22.945568	1.075662	-1.512141	2.236571	0.000000	-0.176596	0.000000	-0.000002	-0.000000	0.000000	0.000000
61.251360	12.881195	24.035766	0.675111	-0.950779	2.172678	0.000000	-0.113472	0.000000	-0.000002	-0.000000	0.000000	0.000000
61.692320	12.450461	24.609848	0.305403	-0.346158	2.136309	0.000000	-0.051640	0.000000	-0.000002	-0.000000	0.000000	0.000000
62.134530	12.338469	24.641160	-0.020195	0.213730	2.127055	0.000000	0.004387	0.000000	-0.000002	-0.000000	0.000000	0.000000
62.431853	12.357646	24.517818	-0.044302	0.201112	2.128359	0.000000	0.004387	0.000000	-0.000002	-0.000000	0.000000	0.000000
62.765186	12.396189	24.388458	-0.071329	0.186967	2.129822	0.000000	0.004387	0.000000	-0.000002	-0.000000	0.000000	0.000000
63.098520	12.452751	24.268529	-0.098356	0.172822	2.131284	0.000000	0.004387	0.000000	-0.000002	-0.000000	0.000000	0.000000
63.433103	12.527644	24.157633	-0.125484	0.158623	2.132752	0.000000	0.004387	0.000000	-0.000003	-0.000000	0.000000	0.000000
63.730426	12.609429	24.067060	-0.118668	0.086985	2.134057	0.000000	-0.000846	0.000000	-0.000003	-0.000000	0.000000	0.000000
64.171386	12.874600	23.725281	-0.484961	0.685146	2.147225	0.000000	0.060628	0.000000	-0.000003	-0.000000	0.000000	0.000000
64.612346	13.471323	22.867755	-0.873411	1.252133	2.187628	0.000000	0.122794	0.000000	-0.000003	-0.000000	0.000000	0.000000
65.053306	14.426863	21.533499	-1.301764	1.762150	2.255725	0.000000	0.186357	0.000000	-0.000003	-0.000000	0.000000	0.000000
65.494266	15.784875	19.783221	-1.789591	2.191990	2.352291	0.000000	0.252043	0.000000	-0.000003	-0.000000	0.000000	0.000000
65.940226	17.630571	17.671781	-2.363873	2.522853	2.480001	0.000000	0.321002	0.000000	-0.000003	-0.000001	0.000000	0.000000
66.489286	19.996379	15.309658	-1.919454	1.804662	2.635882	0.000000	0.245972	0.000000	-0.000004	-0.000000	0.000000	0.000000
67.038346	21.796370	13.661405	-1.339454	1.215013	2.749307	0.000000	0.166579	0.000000	-0.000004	-0.000000	0.000000	0.000000
67.587406	22.903402	12.609619	-0.664842	0.711907	2.818263	0.000000	0.084232	0.000000	-0.000004	-0.000000	0.000000	0.000000
68.136466	23.239279	12.079384	0.056731	0.259508	2.841529	0.000000	0.000390	0.000000	-0.000004	-0.000000	0.000000	0.000000
68.435038	23.245498	11.913578	-0.016839	0.264258	2.843862	0.000000	0.007815	0.000000	-0.000004	-0.000000	0.000000	0.000000
68.768372	23.261505	11.747383	-0.031182	0.234325	2.846467	0.000000	0.007815	0.000000	-0.000004	-0.000000	0.000000	0.000000
69.101705	23.287075	11.601144	-0.045526	0.204392	2.849072	0.000000	0.007815	0.000000	-0.000004	-0.000000	0.000000	0.000000
69.436288	23.322357	11.474424	-0.059924	0.174347	2.851687	0.000000	0.007815	0.000000	-0.000004	-0.000000	0.000000	0.000000
69.733611	23.361794	11.378688	-0.133760	0.177379	2.854010	0.000000	0.015272	0.000000	-0.000004	-0.000000	0.000000	0.000000
70.282671	23.107462	11.411708	0.594233	-0.237873	2.839208	0.000000	-0.069111	0.000000	-0.000004	0.000000	0.000000	0.000000
