#ParticleID	Turn	x[m]	xp	y[m]	yp	z[m]	dE[GeV]# s	beta_x	beta_y	alpha_x	alpha_y	D_x	D_y	D_px	D_py	orbit_x	orbit_px	orbit_y	orbit_py
0.300000	11.828500	24.960067	-0.012885	-0.027723	2.618209	0.000000	-0.000025	0.000000	-0.000000	0.000000	0.000000	0.000000
0.601250	11.843936	24.980409	-0.038357	-0.039801	2.618202	0.000000	-0.000025	0.000000	0.000000	0.000000	0.000000	0.000000
0.898573	11.874220	25.007621	-0.034379	-0.113048	2.618195	0.000000	-0.006445	0.000000	0.000000	0.000000	0.000000	0.000000
1.339533	12.056851	24.829951	-0.381360	0.514431	2.631646	0.000000	0.067514	0.000000	0.000000	0.000000	0.000000	0.000000
1.780493	12.551990	24.107141	-0.745765	1.118505	2.677849	0.000000	0.142242	0.000000	0.000000	0.000000	0.000000	0.000000
2.221453	13.382258	22.872079	-1.144242	1.671687	2.757330	0.000000	0.218590	0.000000	0.000000	0.000000	0.000000	0.000000
2.662413	14.585587	21.180958	-1.594996	2.148809	2.870993	0.000000	0.297428	0.000000	0.000001	0.000000	0.000000	0.000000
3.108373	16.237752	19.085919	-2.122919	2.529292	3.021995	0.000000	0.380143	0.000000	0.000001	0.000000	0.000000	0.000000
3.657433	18.356336	16.732977	-1.712806	1.781404	3.205445	0.000000	0.287105	0.000000	0.000001	0.000000	0.000000	0.000000
4.206493	19.955061	15.127227	-1.181708	1.160402	3.336336	0.000000	0.188975	0.000000	0.000001	0.000000	0.000000	0.000000
4.755553	20.921002	14.154295	-0.567141	0.622053	3.412346	0.000000	0.087493	0.000000	0.000001	0.000000	0.000000	0.000000
5.304613	21.185930	13.744881	0.087487	0.128012	3.432128	0.000000	-0.015541	0.000000	0.000001	0.000000	0.000000	0.000000
5.603185	21.170954	13.653655	0.018025	0.141618	3.430165	0.000000	-0.006574	0.000000	0.000001	0.000000	0.000000	0.000000
5.936519	21.164187	13.567544	0.002275	0.116715	3.427973	0.000000	-0.006574	0.000000	0.000001	0.000000	0.000000	0.000000
6.269852	21.167921	13.498035	-0.013475	0.091812	3.425782	0.000000	-0.006574	0.000000	0.000002	0.000000	0.000000	0.000000
6.604435	21.182227	13.444961	-0.029284	0.066815	3.423582	0.000000	-0.006574	0.000000	0.000002	0.000000	0.000000	0.000000
6.901758	21.203818	13.411834	-0.098733	0.079645	3.421628	0.000000	0.002366	0.000000	0.000002	0.000000	0.000000	0.000000
7.450818	20.950797	13.584917	0.556831	-0.396741	3.394726	0.000000	-0.100213	0.000000	0.000002	0.000000	0.000000	0.000000
7.999878	19.995325	14.293484	1.173064	-0.901385	3.311908	0.000000	-0.201014	0.000000	0.000002	0.000000	0.000000	0.000000
8.548938	18.404891	15.588003	1.706438	-1.470233	3.174644	0.000000	-0.298249	0.000000	0.000002	0.000000	0.000000	0.000000
9.097998	16.291836	17.560681	2.119277	-2.143802	2.985366	0.000000	-0.390195	0.000000	0.000002	-0.000000	0.000000	0.000000
9.543958	14.643158	19.318494	1.590786	-1.781178	2.829661	0.000000	-0.308491	0.000000	0.000002	0.000000	0.000000	0.000000
9.984918	13.443861	20.699509	1.139271	-1.338741	2.710875	0.000000	-0.230785	0.000000	0.000002	0.000000	0.000000	0.000000
10.425878	12.618396	21.661877	0.739805	-0.835393	2.625742	0.000000	-0.155707	0.000000	0.000002	0.000000	0.000000	0.000000
10.866838	12.129048	22.161812	0.374139	-0.294035	2.573293	0.000000	-0.082403	0.000000	0.000002	0.000000	0.000000	0.000000
11.309048	11.953323	22.176051	0.054774	0.206261	2.552911	0.000000	-0.016298	0.000000	0.000002	0.000000	0.000000	0.000000
11.606371	11.928169	22.057555	0.029826	0.192283	2.548065	0.000000	-0.016298	0.000000	0.000002	0.000000	0.000000	0.000000
12.086371	11.918869	21.883795	-0.010451	0.169717	2.540242	0.000000	-0.016298	0.000000	0.000002	0.000000	0.000000	0.000000
12.566371	11.948234	21.731698	-0.050727	0.147151	2.532419	0.000000	-0.016298	0.000000	0.000002	0.000000	0.000000	0.000000
13.046371	12.016265	21.601264	-0.091004	0.124585	2.524596	0.000000	-0.016298	0.000000	0.000002	0.000000	0.000000	0.000000
13.526371	12.122962	21.492494	-0.131281	0.102020	2.516773	0.000000	-0.016298	0.000000	0.000002	0.000000	0.000000	0.000000
14.007621	12.268753	21.405188	-0.171662	0.079395	2.508930	0.000000	-0.016298	0.000000	0.000003	0.000000	0.000000	0.000000
14.304943	12.378249	21.362132	-0.166256	0.013032	2.504084	0.000000	-0.022438	0.000000	0.000003	0.000000	0.000000	0.000000
14.745903	12.683574	21.116806	-0.528780	0.541198	2.509820	0.000000	0.048480	0.000000	0.000003	0.000000	0.000000	0.000000
15.186863	13.318019	20.414799	-0.915462	1.044740	2.546920	0.000000	0.119950	0.000000	0.000003	0.000000	0.000000	0.000000
15.627823	14.310572	19.288054	-1.343968	1.500746	2.615807	0.000000	0.192786	0.000000	0.000003	0.000000	0.000000	0.000000
16.068783	15.706579	17.787836	-1.833877	1.888470	2.717264	0.000000	0.267818	0.000000	0.000003	0.000001	0.000000	0.000000
16.514743	17.593474	15.960902	-2.412328	2.191019	2.854142	0.000000	0.346363	0.000000	0.000004	0.000001	0.000000	0.000000
17.063803	20.016697	13.920847	-1.974949	1.546453	3.020588	0.000000	0.259039	0.000000	0.000004	0.000000	0.000000	0.000000
17.612863	21.879714	12.524326	-1.398068	1.012037	3.137754	0.000000	0.167121	0.000000	0.000004	0.000000	0.000000	0.000000
18.161923	23.050931	11.671868	-0.722435	0.549706	3.203562	0.000000	0.072238	0.000000	0.000004	0.000000	0.000000	0.000000
18.710983	23.447619	11.302753	0.004227	0.126529	3.216844	0.000000	-0.023926	0.000000	0.000004	0.000000	0.000000	0.000000
19.009556	23.485492	11.217642	-0.069810	0.129001	3.212210	0.000000	-0.015521	0.000000	0.000004	0.000000	0.000000	0.000000
19.342889	23.536786	11.141711	-0.084073	0.098791	3.207036	0.000000	-0.015521	0.000000	0.000004	0.000000	0.000000	0.000000
19.676223	23.597588	11.085921	-0.098335	0.068581	3.201862	0.000000	-0.015521	0.000000	0.000004	0.000000	0.000000	0.000000
20.010806	23.668474	11.050037	-0.229918	0.093007	3.196689	0.000000	0.000317	0.000000	0.000004	0.000000	0.000000	0.000000
20.308129	23.809126	11.002800	-0.305350	0.094615	3.196783	0.000000	0.008669	0.000000	0.000004	0.000000	0.000000	0.000000
20.857189	23.733798	11.121405	0.441732	-0.311906	3.175326	0.000000	-0.086712	0.000000	0.000004	-0.000000	0.000000	0.000000
21.406249	22.850433	11.695927	1.157612	-0.740643	3.101845	0.000000	-0.180556	0.000000	0.000004	-0.000000	0.000000	0.000000
21.955309	21.221427	12.767285	1.791724	-1.222134	2.977643	0.000000	-0.271197	0.000000	0.000004	-0.000000	0.000000	0.000000
22.504369	18.961845	14.411791	2.299278	-1.790675	2.804922	0.000000	-0.357027	0.000000	0.000004	-0.000000	0.000000	0.000000
22.950329	17.181228	15.888109	1.707590	-1.505785	2.662994	0.000000	-0.279825	0.000000	0.000004	-0.000000	0.000000	0.000000
23.391289	15.904552	17.065112	1.198614	-1.153241	2.555923	0.000000	-0.206265	0.000000	0.000004	-0.000000	0.000000	0.000000
23.832249	15.050999	17.906785	0.744399	-0.748225	2.480741	0.000000	-0.135053	0.000000	0.000004	-0.000000	0.000000	0.000000
24.273209	14.581572	18.374833	0.324194	-0.309165	2.436592	0.000000	-0.065380	0.000000	0.000004	-0.000000	0.000000	0.000000
24.715418	14.474941	18.447713	-0.045791	0.098655	2.422969	0.000000	-0.002393	0.000000	0.000004	0.000000	0.000000	0.000000
25.012741	14.508290	18.393887	-0.066374	0.082381	2.422258	0.000000	-0.002393	0.000000	0.000004	0.000000	0.000000	0.000000
25.346075	14.560232	18.345048	-0.089451	0.064136	2.421460	0.000000	-0.002393	0.000000	0.000004	0.000000	0.000000	0.000000
25.679408	14.627558	18.308373	-0.112527	0.045891	2.420662	0.000000	-0.002393	0.000000	0.000004	0.000000	0.000000	0.000000
26.013991	14.710309	18.284162	-0.016351	-0.120753	2.419837	0.000000	-0.022024	0.000000	0.000004	0.000000	0.000000	0.000000
26.311314	14.726043	18.360873	-0.000457	-0.182276	2.413288	0.000000	-0.027942	0.000000	0.000004	-0.000000	0.000000	0.000000
26.752274	14.907901	18.322453	-0.413521	0.269072	2.416076	0.000000	0.040597	0.000000	0.000004	0.000000	0.000000	0.000000
27.193234	15.460972	17.889879	-0.845479	0.708177	2.449159	0.000000	0.109599	0.000000	0.000004	0.000000	0.000000	0.000000
27.634194	16.410523	17.082834	-1.316064	1.115060	2.512916	0.000000	0.179849	0.000000	0.000004	0.000000	0.000000	0.000000
28.075154	17.799938	15.938036	-1.846776	1.471209	2.608072	0.000000	0.252147	0.000000	0.000004	0.000000	0.000000	0.000000
28.521114	19.716839	14.490332	-2.466819	1.761333	2.737313	0.000000	0.327760	0.000000	0.000004	0.000000	0.000000	0.000000
29.070174	22.153228	12.877166	-1.944295	1.194060	2.894611	0.000000	0.244370	0.000000	0.000004	0.000000	0.000000	0.000000
29.619234	23.936552	11.836856	-1.284437	0.711836	3.004864	0.000000	0.156645	0.000000	0.000005	0.000000	0.000000	0.000000
30.168294	24.940846	11.295301	-0.533852	0.280315	3.066116	0.000000	0.066142	0.000000	0.000005	0.000000	0.000000	0.000000
30.717354	25.095172	11.213930	0.254442	-0.131239	3.077281	0.000000	-0.025534	0.000000	0.000005	-0.000000	0.000000	0.000000
31.015927	24.986065	11.282836	0.176553	-0.128842	3.072058	0.000000	-0.017494	0.000000	0.000005	-0.000000	0.000000	0.000000
31.349260	24.872949	11.378742	0.162797	-0.158876	3.066226	0.000000	-0.017494	0.000000	0.000005	-0.000000	0.000000	0.000000
31.682593	24.769003	11.494671	0.149040	-0.188910	3.060395	0.000000	-0.017494	0.000000	0.000005	-0.000000	0.000000	0.000000
32.017177	24.673890	11.631169	0.135232	-0.219056	3.054542	0.000000	-0.017494	0.000000	0.000005	-0.000000	0.000000	0.000000
32.314499	24.597123	11.769395	0.058696	-0.215096	3.049341	0.000000	-0.009527	0.000000	0.000005	-0.000000	0.000000	0.000000
32.863559	24.111300	12.244926	0.820893	-0.656098	3.019231	0.000000	-0.099991	0.000000	0.000004	-0.000000	0.000000	0.000000
33.412619	22.815535	13.227397	1.525106	-1.143833	2.939865	0.000000	-0.188681	0.000000	0.000004	-0.000000	0.000000	0.000000
33.961679	20.801354	14.786787	2.121594	-1.713040	2.812651	0.000000	-0.274025	0.000000	0.000004	-0.000000	0.000000	0.000000
34.510739	18.211030	17.034169	2.568222	-2.404264	2.639845	0.000000	-0.354509	0.000000	0.000004	-0.000001	0.000000	0.000000
34.956699	16.197064	19.044307	1.963983	-2.084354	2.498089	0.000000	-0.281586	0.000000	0.000003	-0.000001	0.000000	0.000000
35.397659	14.695357	20.706308	1.454476	-1.670356	2.389301	0.000000	-0.212299	0.000000	0.000003	-0.000000	0.000000	0.000000
35.838619	13.612105	21.968161	1.011420	-1.180359	2.310504	0.000000	-0.145430	0.000000	0.000003	-0.000000	0.000000	0.000000
36.279579	12.897816	22.772453	0.614574	-0.636655	2.260801	0.000000	-0.080217	0.000000	0.000003	-0.000000	0.000000	0.000000
36.721789	12.519166	23.082889	0.276399	-0.120644	2.239599	0.000000	-0.021409	0.000000	0.000003	-0.000000	0.000000	0.000000
37.019112	12.362407	23.158514	0.250835	-0.133712	2.233233	0.000000	-0.021409	0.000000	0.000003	-0.000000	0.000000	0.000000
37.352445	12.204737	23.252539	0.222175	-0.148363	2.226097	0.000000	-0.021409	0.000000	0.000003	-0.000000	0.000000	0.000000
37.685779	12.066174	23.356331	0.193515	-0.163014	2.218960	0.000000	-0.021409	0.000000	0.000003	-0.000000	0.000000	0.000000
38.020362	11.946305	23.470335	0.164748	-0.177719	2.211797	0.000000	-0.021409	0.000000	0.000003	-0.000000	0.000000	0.000000
38.317684	11.855939	23.579900	0.168258	-0.248611	2.205432	0.000000	-0.026818	0.000000	0.000003	-0.000000	0.000000	0.000000
38.758644	11.858766	23.537995	-0.174694	0.343281	2.207533	0.000000	0.036354	0.000000	0.000002	-0.000000	0.000000	0.000000
39.199604	12.166412	22.979009	-0.525627	0.919554	2.237554	0.000000	0.099940	0.000000	0.000002	-0.000000	0.000000	0.000000
39.640564	12.792934	21.928374	-0.900575	1.453988	2.295839	0.000000	0.164665	0.000000	0.000002	-0.000000	0.000000	0.000000
40.081524	13.766953	20.433894	-1.316667	1.922266	2.383050	0.000000	0.231264	0.000000	0.000002	0.000000	0.000000	0.000000
40.527484	15.150537	18.540999	-1.796738	2.304362	2.501653	0.000000	0.300903	0.000000	0.000002	0.000000	0.000000	0.000000
41.076544	16.916368	16.413948	-1.400322	1.592490	2.646339	0.000000	0.225353	0.000000	0.000002	0.000000	0.000000	0.000000
41.625604	18.189662	15.002117	-0.904994	0.994048	2.748384	0.000000	0.145806	0.000000	0.000002	-0.000000	0.000000	0.000000
42.174664	18.880481	14.204944	-0.345742	0.466410	2.805976	0.000000	0.063672	0.000000	0.000002	-0.000000	0.000000	0.000000
42.723724	18.940028	13.965647	0.237931	-0.028008	2.818096	0.000000	-0.019591	0.000000	0.000002	-0.000000	0.000000	0.000000
43.022297	18.832372	13.966966	0.172121	-0.012899	2.814445	0.000000	-0.012228	0.000000	0.000002	-0.000000	0.000000	0.000000
43.502297	18.679732	13.995848	0.145878	-0.047272	2.808576	0.000000	-0.012228	0.000000	0.000002	-0.000000	0.000000	0.000000
43.982297	18.552286	14.057728	0.119635	-0.081644	2.802706	0.000000	-0.012228	0.000000	0.000002	-0.000000	0.000000	0.000000
44.462297	18.450033	14.152605	0.093392	-0.116017	2.796837	0.000000	-0.012228	0.000000	0.000002	-0.000000	0.000000	0.000000
44.942297	18.372973	14.280480	0.067149	-0.150389	2.790968	0.000000	-0.012228	0.000000	0.000002	-0.000000	0.000000	0.000000
45.423547	18.321231	14.441636	-0.049936	-0.113299	2.785100	0.000000	0.001571	0.000000	0.000002	-0.000000	0.000000	0.000000
45.720870	18.355763	14.515208	-0.114164	-0.096226	2.785568	0.000000	0.008849	0.000000	0.000002	-0.000000	0.000000	0.000000
46.269930	18.172048	14.901683	0.446783	-0.611813	2.767856	0.000000	-0.073269	0.000000	0.000002	-0.000000	0.000000	0.000000
46.818990	17.386108	15.874798	0.976172	-1.170978	2.705348	0.000000	-0.154088	0.000000	0.000001	-0.000000	0.000000	0.000000
47.368050	16.053458	17.503866	1.436608	-1.813549	2.599152	0.000000	-0.232174	0.000000	0.000001	-0.000000	0.000000	0.000000
47.917110	14.268230	19.904923	1.795570	-2.585296	2.451150	0.000000	-0.306141	0.000000	0.000001	-0.000000	0.000000	0.000000
48.363070	12.878856	22.039767	1.330934	-2.181653	2.329915	0.000000	-0.237847	0.000000	0.000001	-0.000000	0.000000	0.000000
48.804030	11.885259	23.749113	0.930872	-1.680016	2.239493	0.000000	-0.172658	0.000000	0.000001	-0.000000	0.000000	0.000000
49.244990	11.224469	24.980531	0.573338	-1.101940	2.177356	0.000000	-0.109436	0.000000	0.000001	-0.000000	0.000000	0.000000
49.685950	10.866297	25.677991	0.241999	-0.473727	2.142797	0.000000	-0.047461	0.000000	0.000000	-0.000000	0.000000	0.000000
50.128160	10.794508	25.809479	-0.051929	0.112699	2.135432	0.000000	0.008738	0.000000	0.000000	-0.000000	0.000000	0.000000
50.425482	10.833598	25.745932	-0.079547	0.101032	2.138030	0.000000	0.008738	0.000000	0.000000	-0.000000	0.000000	0.000000
50.758816	10.896951	25.682937	-0.110510	0.087953	2.140942	0.000000	0.008738	0.000000	0.000000	-0.000000	0.000000	0.000000
51.092149	10.980946	25.628661	-0.141474	0.074874	2.143855	0.000000	0.008738	0.000000	0.000000	-0.000000	0.000000	0.000000
51.426732	11.085789	25.583469	-0.082618	-0.145800	2.146757	0.000000	-0.008678	0.000000	-0.000000	-0.000000	0.000000	0.000000
51.724055	11.142946	25.673697	-0.082295	-0.220628	2.144177	0.000000	-0.013936	0.000000	-0.000000	-0.000000	0.000000	0.000000
52.165015	11.360982	25.582674	-0.414039	0.426263	2.151620	0.000000	0.047726	0.000000	-0.000000	-0.000000	0.000000	0.000000
52.605975	11.878794	24.927550	-0.764700	1.053760	2.186347	0.000000	0.109931	0.000000	-0.000000	-0.000000	0.000000	0.000000
53.046935	12.720040	23.738134	-1.150297	1.633311	2.248754	0.000000	0.173388	0.000000	-0.000001	-0.000000	0.000000	0.000000
53.487895	13.923153	22.068541	-1.588449	2.138548	2.339551	0.000000	0.238820	0.000000	-0.000001	-0.000000	0.000000	0.000000
53.933855	15.563720	19.969773	-2.103409	2.547818	2.461278	0.000000	0.307371	0.000000	-0.000001	-0.000000	0.000000	0.000000
54.482915	17.675849	17.608212	-1.720629	1.778669	2.609863	0.000000	0.233066	0.000000	-0.000001	-0.000000	0.000000	0.000000
55.031975	19.298008	16.017159	-1.216312	1.136212	2.716453	0.000000	0.154627	0.000000	-0.000001	-0.000000	0.000000	0.000000
55.581035	20.315615	15.083287	-0.626081	0.574684	2.779158	0.000000	0.073445	0.000000	-0.000001	-0.000000	0.000000	0.000000
56.130095	20.656794	14.740079	0.008373	0.054089	2.796866	0.000000	-0.009039	0.000000	-0.000001	-0.000000	0.000000	0.000000
56.428668	20.688348	14.690881	-0.060084	0.072174	2.796349	0.000000	-0.001732	0.000000	-0.000002	-0.000000	0.000000	0.000000
56.762001	20.733794	14.650368	-0.076254	0.049366	2.795772	0.000000	-0.001732	0.000000	-0.000002	-0.000000	0.000000	0.000000
57.095334	20.790020	14.625060	-0.092424	0.026558	2.795195	0.000000	-0.001732	0.000000	-0.000002	-0.000000	0.000000	0.000000
57.429918	20.857298	14.614948	-0.108655	0.003664	2.794615	0.000000	-0.001732	0.000000	-0.000002	-0.000000	0.000000	0.000000
57.727240	20.926198	14.618818	-0.177756	0.021517	2.794100	0.000000	0.005569	0.000000	-0.000002	-0.000000	0.000000	0.000000
58.276300	20.764332	14.875980	0.470814	-0.492649	2.774518	0.000000	-0.076796	0.000000	-0.000002	-0.000000	0.000000	0.000000
58.825360	19.904387	15.713598	1.086129	-1.041905	2.710020	0.000000	-0.157798	0.000000	-0.000002	-0.000000	0.000000	0.000000
59.374420	18.407102	17.191334	1.624724	-1.665374	2.601751	0.000000	-0.236001	0.000000	-0.000002	-0.000000	0.000000	0.000000
59.923480	16.378240	19.414443	2.048558	-2.407463	2.451631	0.000000	-0.310019	0.000000	-0.000002	0.000000	0.000000	0.000000
60.369440	14.790178	21.390430	1.525049	-2.004696	2.328665	0.000000	-0.241734	0.000000	-0.000002	-0.000000	0.000000	0.000000
60.810400	13.647806	22.947115	1.075427	-1.512088	2.236519	0.000000	-0.176600	0.000000	-0.000002	-0.000000	0.000000	0.000000
61.251360	12.878882	24.037246	0.674939	-0.950681	2.172623	0.000000	-0.113478	0.000000	-0.000002	-0.000000	0.000000	0.000000
61.692320	12.448275	24.611222	0.305286	-0.346018	2.136251	0.000000	-0.051647	0.000000	-0.000002	-0.000000	0.000000	0.000000
62.134530	12.336364	24.642394	-0.020267	0.213902	2.126993	0.000000	0.004378	0.000000	-0.000002	-0.000000	0.000000	0.000000
62.431853	12.355585	24.518950	-0.044378	0.201284	2.128295	0.000000	0.004378	0.000000	-0.000002	-0.000000	0.000000	0.000000
62.765186	12.394181	24.389476	-0.071410	0.187139	2.129755	0.000000	0.004378	0.000000	-0.000002	-0.000000	0.000000	0.000000
63.098520	12.450798	24.269432	-0.098441	0.172993	2.131214	0.000000	0.004378	0.000000	-0.000002	-0.000000	0.000000	0.000000
63.433103	12.525750	24.158422	-0.125574	0.158794	2.132679	0.000000	0.004378	0.000000	-0.000002	-0.000000	0.000000	0.000000
63.730426	12.607591	24.067747	-0.118767	0.087154	2.133981	0.000000	-0.000855	0.000000	-0.000002	-0.000000	0.000000	0.000000
64.171386	12.872831	23.725812	-0.485021	0.685329	2.147145	0.000000	0.060618	0.000000	-0.000003	-0.000000	0.000000	0.000000
64.612346	13.469591	22.868122	-0.873434	1.252322	2.187543	0.000000	0.122781	0.000000	-0.000003	-0.000000	0.000000	0.000000
65.053306	14.425135	21.533701	-1.301751	1.762335	2.255634	0.000000	0.186342	0.000000	-0.000003	-0.000000	0.000000	0.000000
65.494266	15.783120	19.783264	-1.789542	2.192164	2.352193	0.000000	0.252026	0.000000	-0.000003	-0.000000	0.000000	0.000000
65.940226	17.628755	17.671677	-2.363785	2.523007	2.479894	0.000000	0.320982	0.000000	-0.000003	-0.000001	0.000000	0.000000
66.489286	19.994504	15.309395	-1.919435	1.804799	2.635765	0.000000	0.245955	0.000000	-0.000004	-0.000000	0.000000	0.000000
67.038346	21.794514	13.660996	-1.339506	1.215143	2.749182	0.000000	0.166567	0.000000	-0.000004	-0.000000	0.000000	0.000000
67.587406	22.901640	12.609067	-0.664961	0.712039	2.818133	0.000000	0.084223	0.000000	-0.000004	-0.000000	0.000000	0.000000
68.136466	23.237681	12.078681	0.056554	0.259651	2.841395	0.000000	0.000386	0.000000	-0.000004	-0.000000	0.000000	0.000000
68.435038	23.244004	11.912791	-0.017013	0.264397	2.843727	0.000000	0.007810	0.000000	-0.000004	-0.000000	0.000000	0.000000
68.768372	23.260127	11.746506	-0.031358	0.234459	2.846330	0.000000	0.007810	0.000000	-0.000004	-0.000000	0.000000	0.000000
69.101705	23.285814	11.600179	-0.045702	0.204522	2.848934	0.000000	0.007810	0.000000	-0.000004	-0.000000	0.000000	0.000000
69.436288	23.321214	11.473373	-0.060101	0.174473	2.851547	0.000000	0.007810	0.000000	-0.000004	-0.000000	0.000000	0.000000
69.733611	23.360757	11.377563	-0.133936	0.177498	2.853869	0.000000	0.015267	0.000000	-0.000004	-0.000000	0.000000	0.000000
70.282671	23.106634	11.410434	0.594028	-0.237720	2.839065	0.000000	-0.069111	0.000000	-0.000004	0.000000	0.000000	0.000000
