#ParticleID	Turn	x[m]	xp	y[m]	yp	z[m]	dE[GeV]# s	beta_x	beta_y	alpha_x	alpha_y	D_x	D_y	D_px	D_py	orbit_x	orbit_px	orbit_y	orbit_py
0.300000	11.826592	24.967190	-0.012621	-0.027689	2.618169	0.000000	-0.000009	0.000000	0.000000	0.000000	0.000000	0.000000
0.601250	11.841870	24.987511	-0.038097	-0.039765	2.618166	0.000000	-0.000009	0.000000	0.000000	0.000000	0.000000	0.000000
0.898573	11.872001	25.014700	-0.034128	-0.113025	2.618164	0.000000	-0.006429	0.000000	0.000000	0.000000	0.000000	0.000000
1.339533	12.054386	24.836927	-0.381052	0.514641	2.631622	0.000000	0.067529	0.000000	0.000000	0.000000	0.000000	0.000000
1.780493	12.549223	24.113853	-0.745386	1.118891	2.677832	0.000000	0.142257	0.000000	0.000001	0.000000	0.000000	0.000000
2.221453	13.379119	22.878378	-1.143774	1.672233	2.757319	0.000000	0.218605	0.000000	0.000001	0.000000	0.000000	0.000000
2.662413	14.581989	21.186714	-1.594418	2.149489	2.870989	0.000000	0.297442	0.000000	0.000001	0.000000	0.000000	0.000000
3.108373	16.233579	19.091020	-2.122204	2.530076	3.021997	0.000000	0.380157	0.000000	0.000001	0.000000	0.000000	0.000000
3.657433	18.351431	16.737329	-1.712195	1.781992	3.205454	0.000000	0.287119	0.000000	0.000001	0.000000	0.000000	0.000000
4.206493	19.949564	15.131021	-1.181245	1.160836	3.336353	0.000000	0.188989	0.000000	0.000001	0.000000	0.000000	0.000000
4.755553	20.915093	14.157684	-0.566858	0.622363	3.412370	0.000000	0.087506	0.000000	0.000001	0.000000	0.000000	0.000000
5.304613	21.179819	13.747987	0.087569	0.128220	3.432159	0.000000	-0.015529	0.000000	0.000002	0.000000	0.000000	0.000000
5.603185	21.164786	13.656630	0.018119	0.141837	3.430200	0.000000	-0.006562	0.000000	0.000002	0.000000	0.000000	0.000000
5.936519	21.157958	13.570372	0.002364	0.116938	3.428012	0.000000	-0.006562	0.000000	0.000002	0.000000	0.000000	0.000000
6.269852	21.161633	13.500713	-0.013390	0.092039	3.425825	0.000000	-0.006562	0.000000	0.000002	0.000000	0.000000	0.000000
6.604435	21.175885	13.447485	-0.029204	0.067046	3.423629	0.000000	-0.006562	0.000000	0.000002	0.000000	0.000000	0.000000
6.901758	21.197429	13.414220	-0.098641	0.079886	3.421678	0.000000	0.002378	0.000000	0.000002	0.000000	0.000000	0.000000
7.450818	20.944424	13.587074	0.556709	-0.396563	3.394783	0.000000	-0.100202	0.000000	0.000002	0.000000	0.000000	0.000000
7.999878	19.989200	14.295475	1.172736	-0.901258	3.311971	0.000000	-0.201005	0.000000	0.000002	0.000000	0.000000	0.000000
8.548938	18.399230	15.589878	1.705926	-1.470148	3.174710	0.000000	-0.298243	0.000000	0.000002	-0.000000	0.000000	0.000000
9.097998	16.286821	17.562483	2.118619	-2.143753	2.985436	0.000000	-0.390191	0.000000	0.000002	-0.000000	0.000000	0.000000
9.543958	14.638663	19.320223	1.590274	-1.781063	2.829733	0.000000	-0.308485	0.000000	0.000002	-0.000000	0.000000	0.000000
9.984918	13.439763	20.701110	1.138880	-1.338567	2.710949	0.000000	-0.230777	0.000000	0.000002	0.000000	0.000000	0.000000
10.425878	12.614595	21.663301	0.739519	-0.835167	2.625820	0.000000	-0.155697	0.000000	0.000002	0.000000	0.000000	0.000000
10.866838	12.125458	22.163017	0.373943	-0.293768	2.573377	0.000000	-0.082391	0.000000	0.000002	0.000000	0.000000	0.000000
11.309048	11.949869	22.177006	0.054652	0.206555	2.553000	0.000000	-0.016284	0.000000	0.000002	0.000000	0.000000	0.000000
11.606371	11.924791	22.058336	0.029697	0.192576	2.548159	0.000000	-0.016284	0.000000	0.000002	0.000000	0.000000	0.000000
12.086371	11.915620	21.884295	-0.010591	0.170008	2.540342	0.000000	-0.016284	0.000000	0.000002	0.000000	0.000000	0.000000
12.566371	11.945125	21.731920	-0.050879	0.147441	2.532526	0.000000	-0.016284	0.000000	0.000002	0.000000	0.000000	0.000000
13.046371	12.013307	21.601209	-0.091166	0.124873	2.524710	0.000000	-0.016284	0.000000	0.000002	0.000000	0.000000	0.000000
13.526371	12.120165	21.492163	-0.131454	0.102306	2.516894	0.000000	-0.016284	0.000000	0.000003	0.000000	0.000000	0.000000
14.007621	12.266129	21.404582	-0.171847	0.079680	2.509057	0.000000	-0.016284	0.000000	0.000003	0.000000	0.000000	0.000000
14.304943	12.375736	21.361358	-0.166454	0.013318	2.504216	0.000000	-0.022424	0.000000	0.000003	0.000000	0.000000	0.000000
14.745903	12.681212	21.115790	-0.528926	0.541456	2.509959	0.000000	0.048497	0.000000	0.000003	0.000000	0.000000	0.000000
15.186863	13.315768	20.413572	-0.915564	1.044959	2.547067	0.000000	0.119971	0.000000	0.000003	0.000000	0.000000	0.000000
15.627823	14.308393	19.286655	-1.344031	1.500917	2.615964	0.000000	0.192811	0.000000	0.000003	0.000000	0.000000	0.000000
16.068783	15.704439	17.786311	-1.833903	1.888584	2.717433	0.000000	0.267847	0.000000	0.000003	0.000000	0.000000	0.000000
16.514743	17.591342	15.959304	-2.412319	2.191070	2.854325	0.000000	0.346396	0.000000	0.000004	0.000001	0.000000	0.000000
17.063803	20.014606	13.919179	-1.975032	1.546530	3.020788	0.000000	0.259066	0.000000	0.000004	0.000000	0.000000	0.000000
17.612863	21.877763	12.522557	-1.398238	1.012145	3.137967	0.000000	0.167141	0.000000	0.000004	0.000000	0.000000	0.000000
18.161923	23.049209	11.669959	-0.722680	0.549853	3.203784	0.000000	0.072252	0.000000	0.000004	0.000000	0.000000	0.000000
18.710983	23.446199	11.300656	0.003925	0.126726	3.217072	0.000000	-0.023920	0.000000	0.000004	0.000000	0.000000	0.000000
19.009556	23.484250	11.215432	-0.070110	0.129186	3.212440	0.000000	-0.015514	0.000000	0.000004	0.000000	0.000000	0.000000
19.342889	23.535744	11.139381	-0.084374	0.098969	3.207268	0.000000	-0.015514	0.000000	0.000004	0.000000	0.000000	0.000000
19.676223	23.596748	11.083474	-0.098637	0.068752	3.202097	0.000000	-0.015514	0.000000	0.000004	0.000000	0.000000	0.000000
20.010806	23.667836	11.047479	-0.230218	0.093158	3.196926	0.000000	0.000325	0.000000	0.000004	0.000000	0.000000	0.000000
20.308129	23.808668	11.000154	-0.305652	0.094751	3.197022	0.000000	0.008678	0.000000	0.000004	0.000000	0.000000	0.000000
20.857189	23.733678	11.118569	0.441422	-0.311692	3.175568	0.000000	-0.086711	0.000000	0.000004	-0.000000	0.000000	0.000000
21.406249	22.850648	11.692806	1.157315	-0.740336	3.102086	0.000000	-0.180563	0.000000	0.000004	-0.000000	0.000000	0.000000
21.955309	21.221951	12.763767	1.791462	-1.221713	2.977877	0.000000	-0.271211	0.000000	0.000004	-0.000000	0.000000	0.000000
22.504369	18.962630	14.407733	2.299068	-1.790109	2.805147	0.000000	-0.357049	0.000000	0.000004	-0.000000	0.000000	0.000000
22.950329	17.182198	15.883585	1.707384	-1.505311	2.663210	0.000000	-0.279841	0.000000	0.000004	-0.000000	0.000000	0.000000
23.391289	15.905706	17.060219	1.198402	-1.152880	2.556133	0.000000	-0.206275	0.000000	0.000004	-0.000000	0.000000	0.000000
23.832249	15.052346	17.901630	0.744171	-0.747994	2.480948	0.000000	-0.135059	0.000000	0.000004	-0.000000	0.000000	0.000000
24.273209	14.583132	18.369536	0.323940	-0.309074	2.436797	0.000000	-0.065380	0.000000	0.000004	-0.000000	0.000000	0.000000
24.715418	14.476741	18.442399	-0.046078	0.098614	2.423175	0.000000	-0.002388	0.000000	0.000004	0.000000	0.000000	0.000000
25.012741	14.510260	18.388599	-0.066660	0.082335	2.422465	0.000000	-0.002388	0.000000	0.000004	0.000000	0.000000	0.000000
25.346075	14.562391	18.339792	-0.089734	0.064085	2.421669	0.000000	-0.002388	0.000000	0.000004	0.000000	0.000000	0.000000
25.679408	14.629905	18.303152	-0.112808	0.045835	2.420873	0.000000	-0.002388	0.000000	0.000004	0.000000	0.000000	0.000000
26.013991	14.712844	18.278980	-0.016609	-0.120771	2.420049	0.000000	-0.022021	0.000000	0.000004	-0.000000	0.000000	0.000000
26.311314	14.728730	18.355703	-0.000705	-0.182286	2.413502	0.000000	-0.027940	0.000000	0.000004	-0.000000	0.000000	0.000000
26.752274	14.910837	18.317354	-0.413840	0.268922	2.416292	0.000000	0.040605	0.000000	0.000004	0.000000	0.000000	0.000000
27.193234	15.464224	17.884972	-0.845882	0.707894	2.449380	0.000000	0.109612	0.000000	0.000004	0.000000	0.000000	0.000000
27.634194	16.414175	17.078230	-1.316569	1.114657	2.513144	0.000000	0.179868	0.000000	0.000004	0.000000	0.000000	0.000000
28.075154	17.804089	15.933834	-1.847407	1.470705	2.608309	0.000000	0.252172	0.000000	0.000004	0.000000	0.000000	0.000000
28.521114	19.721621	14.486618	-2.467607	1.760750	2.737563	0.000000	0.327792	0.000000	0.000004	0.000000	0.000000	0.000000
29.070174	22.158814	12.874013	-1.944962	1.193615	2.894877	0.000000	0.244393	0.000000	0.000004	0.000000	0.000000	0.000000
29.619234	23.942782	11.834129	-1.284935	0.711499	3.005140	0.000000	0.156660	0.000000	0.000004	0.000000	0.000000	0.000000
30.168294	24.947515	11.292898	-0.534147	0.280061	3.066398	0.000000	0.066148	0.000000	0.000004	0.000000	0.000000	0.000000
30.717354	25.102044	11.211769	0.254371	-0.131428	3.077563	0.000000	-0.025538	0.000000	0.000004	-0.000000	0.000000	0.000000
31.015927	24.992989	11.280792	0.176468	-0.129043	3.072339	0.000000	-0.017497	0.000000	0.000004	-0.000000	0.000000	0.000000
31.349260	24.879928	11.376835	0.162716	-0.159084	3.066507	0.000000	-0.017497	0.000000	0.000004	-0.000000	0.000000	0.000000
31.682593	24.776035	11.492905	0.148963	-0.189125	3.060674	0.000000	-0.017497	0.000000	0.000004	-0.000000	0.000000	0.000000
32.017177	24.680972	11.629549	0.135159	-0.219278	3.054820	0.000000	-0.017497	0.000000	0.000004	-0.000000	0.000000	0.000000
32.314499	24.604248	11.767909	0.058608	-0.215328	3.049618	0.000000	-0.009529	0.000000	0.000004	-0.000000	0.000000	0.000000
32.863559	24.118390	12.243677	0.821043	-0.656301	3.019504	0.000000	-0.100002	0.000000	0.000004	-0.000000	0.000000	0.000000
33.412619	22.822334	13.226361	1.525483	-1.144021	2.940130	0.000000	-0.188701	0.000000	0.000004	-0.000000	0.000000	0.000000
33.961679	20.807627	14.785956	2.122171	-1.713227	2.812903	0.000000	-0.274053	0.000000	0.000004	-0.000000	0.000000	0.000000
34.510739	18.216578	17.033547	2.568959	-2.404462	2.640080	0.000000	-0.354545	0.000000	0.000004	-0.000001	0.000000	0.000000
34.956699	16.202030	19.043882	1.964555	-2.084595	2.498309	0.000000	-0.281616	0.000000	0.000003	-0.000001	0.000000	0.000000
35.397659	14.699880	20.706110	1.454911	-1.670629	2.389509	0.000000	-0.212324	0.000000	0.000003	-0.000000	0.000000	0.000000
35.838619	13.616297	21.968213	1.011739	-1.180650	2.310702	0.000000	-0.145449	0.000000	0.000003	-0.000000	0.000000	0.000000
36.279579	12.901774	22.772764	0.614790	-0.636952	2.260992	0.000000	-0.080231	0.000000	0.000003	-0.000000	0.000000	0.000000
36.721789	12.522974	23.083460	0.276532	-0.120934	2.239784	0.000000	-0.021419	0.000000	0.000003	-0.000000	0.000000	0.000000
37.019112	12.366135	23.159259	0.250974	-0.134003	2.233416	0.000000	-0.021419	0.000000	0.000003	-0.000000	0.000000	0.000000
37.352445	12.208369	23.253478	0.222321	-0.148654	2.226276	0.000000	-0.021419	0.000000	0.000003	-0.000000	0.000000	0.000000
37.685779	12.069706	23.357464	0.193668	-0.163306	2.219136	0.000000	-0.021419	0.000000	0.000002	-0.000000	0.000000	0.000000
38.020362	11.949733	23.471664	0.164907	-0.178012	2.211970	0.000000	-0.021419	0.000000	0.000002	-0.000000	0.000000	0.000000
38.317684	11.859271	23.581403	0.168431	-0.248908	2.205601	0.000000	-0.026828	0.000000	0.000002	-0.000000	0.000000	0.000000
38.758644	11.861978	23.539742	-0.174595	0.343027	2.207698	0.000000	0.036348	0.000000	0.000002	-0.000000	0.000000	0.000000
39.199604	12.169568	22.980955	-0.525597	0.919356	2.237718	0.000000	0.099938	0.000000	0.000002	-0.000000	0.000000	0.000000
39.640564	12.796092	21.930467	-0.900613	1.453854	2.296003	0.000000	0.164667	0.000000	0.000002	-0.000000	0.000000	0.000000
40.081524	13.770176	20.436074	-1.316775	1.922203	2.383216	0.000000	0.231271	0.000000	0.000002	0.000000	0.000000	0.000000
40.527484	15.153889	18.543202	-1.796921	2.304373	2.501824	0.000000	0.300914	0.000000	0.000002	0.000000	0.000000	0.000000
41.076544	16.919854	16.416167	-1.400382	1.592451	2.646514	0.000000	0.225358	0.000000	0.000002	-0.000000	0.000000	0.000000
41.625604	18.193144	15.004408	-0.904926	0.993955	2.748560	0.000000	0.145805	0.000000	0.000002	-0.000000	0.000000	0.000000
42.174664	18.883820	14.207369	-0.345551	0.466257	2.806151	0.000000	0.063666	0.000000	0.000002	-0.000000	0.000000	0.000000
42.723724	18.943095	13.968278	0.238232	-0.028231	2.818266	0.000000	-0.019602	0.000000	0.000002	-0.000000	0.000000	0.000000
43.022297	18.835265	13.969726	0.172415	-0.013112	2.814611	0.000000	-0.012239	0.000000	0.000002	-0.000000	0.000000	0.000000
43.502297	18.682343	13.998809	0.146173	-0.047478	2.808737	0.000000	-0.012239	0.000000	0.000002	-0.000000	0.000000	0.000000
43.982297	18.554612	14.060883	0.119931	-0.081844	2.802862	0.000000	-0.012239	0.000000	0.000002	-0.000000	0.000000	0.000000
44.462297	18.452074	14.155949	0.093690	-0.116210	2.796987	0.000000	-0.012239	0.000000	0.000002	-0.000000	0.000000	0.000000
44.942297	18.374728	14.284006	0.067448	-0.150576	2.791113	0.000000	-0.012239	0.000000	0.000002	-0.000000	0.000000	0.000000
45.423547	18.322698	14.445338	-0.049643	-0.113460	2.785240	0.000000	0.001561	0.000000	0.000001	-0.000000	0.000000	0.000000
45.720870	18.357054	14.519005	-0.113873	-0.096373	2.785704	0.000000	0.008839	0.000000	0.000001	-0.000000	0.000000	0.000000
46.269930	18.172997	14.905705	0.447110	-0.612080	2.767986	0.000000	-0.073284	0.000000	0.000001	-0.000000	0.000000	0.000000
46.818990	17.386690	15.879187	0.976510	-1.171384	2.705469	0.000000	-0.154106	0.000000	0.000001	-0.000000	0.000000	0.000000
47.368050	16.053673	17.508790	1.436935	-1.814123	2.599261	0.000000	-0.232196	0.000000	0.000001	-0.000000	0.000000	0.000000
47.917110	14.268103	19.910588	1.795862	-2.586078	2.451247	0.000000	-0.306167	0.000000	0.000001	-0.000000	0.000000	0.000000
48.363070	12.878481	22.046077	1.331202	-2.182312	2.330001	0.000000	-0.237870	0.000000	0.000001	-0.000000	0.000000	0.000000
48.804030	11.884654	23.755940	0.931128	-1.680523	2.239569	0.000000	-0.172679	0.000000	0.000000	-0.000000	0.000000	0.000000
49.244990	11.223639	24.987728	0.573595	-1.102271	2.177423	0.000000	-0.109455	0.000000	0.000000	-0.000000	0.000000	0.000000
49.685950	10.865236	25.685397	0.242267	-0.473867	2.142856	0.000000	-0.047478	0.000000	0.000000	-0.000000	0.000000	0.000000
50.128160	10.793200	25.816921	-0.051640	0.112737	2.135483	0.000000	0.008722	0.000000	0.000000	-0.000000	0.000000	0.000000
50.425482	10.832119	25.753350	-0.079260	0.101074	2.138077	0.000000	0.008722	0.000000	0.000000	-0.000000	0.000000	0.000000
50.758816	10.895281	25.690326	-0.110226	0.087999	2.140984	0.000000	0.008722	0.000000	-0.000000	-0.000000	0.000000	0.000000
51.092149	10.979088	25.636018	-0.141192	0.074923	2.143891	0.000000	0.008722	0.000000	-0.000000	-0.000000	0.000000	0.000000
51.426732	11.083744	25.590792	-0.082356	-0.145806	2.146788	0.000000	-0.008694	0.000000	-0.000000	-0.000000	0.000000	0.000000
51.724055	11.140746	25.681023	-0.082043	-0.220649	2.144203	0.000000	-0.013953	0.000000	-0.000000	-0.000000	0.000000	0.000000
52.165015	11.358536	25.589933	-0.413730	0.426436	2.151639	0.000000	0.047710	0.000000	-0.000000	-0.000000	0.000000	0.000000
52.605975	11.876046	24.934574	-0.764320	1.054118	2.186359	0.000000	0.109915	0.000000	-0.000001	-0.000000	0.000000	0.000000
53.046935	12.716919	23.744765	-1.149829	1.633839	2.248759	0.000000	0.173373	0.000000	-0.000001	-0.000000	0.000000	0.000000
53.487895	13.919572	22.074640	-1.587871	2.139222	2.339549	0.000000	0.238805	0.000000	-0.000001	-0.000000	0.000000	0.000000
53.933855	15.559565	19.975217	-2.102694	2.548606	2.461269	0.000000	0.307356	0.000000	-0.000001	-0.000000	0.000000	0.000000
54.482915	17.670961	17.612907	-1.720017	1.779253	2.609846	0.000000	0.233051	0.000000	-0.000001	-0.000000	0.000000	0.000000
55.031975	19.292526	16.021305	-1.215848	1.136633	2.716428	0.000000	0.154612	0.000000	-0.000001	-0.000000	0.000000	0.000000
55.581035	20.309720	15.087046	-0.625796	0.574972	2.779126	0.000000	0.073432	0.000000	-0.000002	-0.000000	0.000000	0.000000
56.130095	20.650695	14.743584	0.008458	0.054265	2.796826	0.000000	-0.009052	0.000000	-0.000002	-0.000000	0.000000	0.000000
56.428668	20.682190	14.694275	-0.059987	0.072363	2.796305	0.000000	-0.001744	0.000000	-0.000002	-0.000000	0.000000	0.000000
56.762001	20.727573	14.653634	-0.076162	0.049560	2.795724	0.000000	-0.001744	0.000000	-0.000002	-0.000000	0.000000	0.000000
57.095334	20.783740	14.628195	-0.092337	0.026756	2.795143	0.000000	-0.001744	0.000000	-0.000002	-0.000000	0.000000	0.000000
57.429918	20.850961	14.617949	-0.108573	0.003867	2.794559	0.000000	-0.001744	0.000000	-0.000002	-0.000000	0.000000	0.000000
57.727240	20.919813	14.621697	-0.177661	0.021732	2.794041	0.000000	0.005556	0.000000	-0.000002	-0.000000	0.000000	0.000000
58.276300	20.757962	14.878667	0.470695	-0.492513	2.774452	0.000000	-0.076806	0.000000	-0.000002	-0.000000	0.000000	0.000000
58.825360	19.898262	15.716175	1.085803	-1.041839	2.709949	0.000000	-0.157806	0.000000	-0.000002	-0.000000	0.000000	0.000000
59.374420	18.401439	17.193873	1.624215	-1.665372	2.601676	0.000000	-0.236007	0.000000	-0.000002	0.000000	0.000000	0.000000
59.923480	16.373221	19.417016	2.047901	-2.407526	2.451553	0.000000	-0.310022	0.000000	-0.000002	0.000000	0.000000	0.000000
60.369440	14.785678	21.393022	1.524539	-2.004678	2.328586	0.000000	-0.241740	0.000000	-0.000002	0.000000	0.000000	0.000000
60.810400	13.643701	22.949655	1.075039	-1.511989	2.236436	0.000000	-0.176608	0.000000	-0.000002	-0.000000	0.000000	0.000000
61.251360	12.875072	24.039664	0.674654	-0.950506	2.172537	0.000000	-0.113487	0.000000	-0.000002	-0.000000	0.000000	0.000000
61.692320	12.444676	24.613456	0.305092	-0.345776	2.136160	0.000000	-0.051659	0.000000	-0.000002	-0.000000	0.000000	0.000000
62.134530	12.332900	24.644388	-0.020387	0.214196	2.126897	0.000000	0.004364	0.000000	-0.000002	-0.000000	0.000000	0.000000
62.431853	12.352194	24.520769	-0.044506	0.201578	2.128194	0.000000	0.004364	0.000000	-0.000002	-0.000000	0.000000	0.000000
62.765186	12.390877	24.391099	-0.071545	0.187432	2.129649	0.000000	0.004364	0.000000	-0.000002	-0.000000	0.000000	0.000000
63.098520	12.447587	24.270860	-0.098584	0.173285	2.131104	0.000000	0.004364	0.000000	-0.000002	-0.000000	0.000000	0.000000
63.433103	12.522637	24.159654	-0.125725	0.159086	2.132564	0.000000	0.004364	0.000000	-0.000003	-0.000000	0.000000	0.000000
63.730426	12.604569	24.068806	-0.118932	0.087443	2.133862	0.000000	-0.000869	0.000000	-0.000003	-0.000000	0.000000	0.000000
64.171386	12.869926	23.726606	-0.485121	0.685638	2.147019	0.000000	0.060601	0.000000	-0.000003	-0.000000	0.000000	0.000000
64.612346	13.466747	22.868639	-0.873473	1.252638	2.187408	0.000000	0.122760	0.000000	-0.000003	-0.000000	0.000000	0.000000
65.053306	14.422300	21.533942	-1.301732	1.762643	2.255489	0.000000	0.186318	0.000000	-0.000003	-0.000000	0.000000	0.000000
65.494266	15.780242	19.783242	-1.789463	2.192450	2.352038	0.000000	0.251998	0.000000	-0.000003	-0.000000	0.000000	0.000000
65.940226	17.625780	17.671415	-2.363644	2.523258	2.479725	0.000000	0.320950	0.000000	-0.000003	-0.000001	0.000000	0.000000
66.489286	19.991435	15.308874	-1.919407	1.805024	2.635580	0.000000	0.245929	0.000000	-0.000004	-0.000000	0.000000	0.000000
67.038346	21.791478	13.660234	-1.339594	1.215358	2.748984	0.000000	0.166546	0.000000	-0.000004	-0.000000	0.000000	0.000000
67.587406	22.898762	12.608067	-0.665158	0.712260	2.817926	0.000000	0.084210	0.000000	-0.000004	-0.000000	0.000000	0.000000
68.136466	23.235074	12.077429	0.056261	0.259894	2.841182	0.000000	0.000379	0.000000	-0.000004	-0.000000	0.000000	0.000000
68.435038	23.241568	11.911399	-0.017301	0.264629	2.843512	0.000000	0.007803	0.000000	-0.000004	-0.000000	0.000000	0.000000
68.768372	23.257883	11.744960	-0.031647	0.234685	2.846113	0.000000	0.007803	0.000000	-0.000004	-0.000000	0.000000	0.000000
69.101705	23.283764	11.598485	-0.045993	0.204741	2.848714	0.000000	0.007803	0.000000	-0.000004	-0.000000	0.000000	0.000000
69.436288	23.319359	11.471536	-0.060394	0.174685	2.851324	0.000000	0.007803	0.000000	-0.000004	-0.000000	0.000000	0.000000
69.733611	23.359076	11.375601	-0.134225	0.177699	2.853644	0.000000	0.015259	0.000000	-0.000004	-0.000000	0.000000	0.000000
70.282671	23.105299	11.408221	0.593691	-0.237460	2.838838	0.000000	-0.069112	0.000000	-0.000004	0.000000	0.000000	0.000000
