#ParticleID	Turn	x[m]	xp	y[m]	yp	z[m]	dE[GeV]# s	beta_x	beta_y	alpha_x	alpha_y	D_x	D_y	D_px	D_py	orbit_x	orbit_px	orbit_y	orbit_py
0.300000	11.815272	25.013049	-0.011165	-0.027347	2.618045	0.000000	0.000038	0.000000	-0.000001	0.000001	0.000000	0.000000
0.601250	11.829680	25.033157	-0.036664	-0.039400	2.618057	0.000000	0.000038	0.000000	-0.000001	0.000001	0.000000	0.000000
0.898573	11.858965	25.060122	-0.032750	-0.112750	2.618068	0.000000	-0.006382	0.000000	-0.000001	0.000001	0.000000	0.000000
1.339533	12.039995	24.881577	-0.379342	0.516110	2.631546	0.000000	0.067574	0.000000	-0.000000	0.000001	0.000000	0.000000
1.780493	12.533149	24.156704	-0.743265	1.121488	2.677774	0.000000	0.142300	0.000000	0.000000	0.000001	0.000000	0.000000
2.221453	13.360958	22.918483	-1.141145	1.675839	2.757280	0.000000	0.218647	0.000000	0.000001	0.000001	0.000000	0.000000
2.662413	14.561243	21.223252	-1.591162	2.153940	2.870967	0.000000	0.297483	0.000000	0.000002	0.000001	0.000000	0.000000
3.108373	16.209591	19.123283	-2.118164	2.535172	3.021993	0.000000	0.380198	0.000000	0.000002	0.000001	0.000000	0.000000
3.657433	18.323317	16.764716	-1.708764	1.785830	3.205472	0.000000	0.287160	0.000000	0.000003	0.000001	0.000000	0.000000
4.206493	19.918130	15.154756	-1.178665	1.163689	3.336392	0.000000	0.189028	0.000000	0.000004	0.000001	0.000000	0.000000
4.755553	20.881379	14.178729	-0.565311	0.624436	3.412431	0.000000	0.087543	0.000000	0.000004	0.000001	0.000000	0.000000
5.304613	21.145027	13.767115	0.087974	0.129659	3.432239	0.000000	-0.015494	0.000000	0.000005	0.000001	0.000000	0.000000
5.603185	21.129704	13.674863	0.018593	0.143346	3.430290	0.000000	-0.006527	0.000000	0.000005	0.000001	0.000000	0.000000
5.936519	21.122569	13.587591	0.002812	0.118470	3.428114	0.000000	-0.006527	0.000000	0.000005	0.000001	0.000000	0.000000
6.269852	21.125955	13.516903	-0.012969	0.093593	3.425939	0.000000	-0.006527	0.000000	0.000006	0.000001	0.000000	0.000000
6.604435	21.139933	13.462628	-0.028809	0.068624	3.423755	0.000000	-0.006527	0.000000	0.000006	0.000001	0.000000	0.000000
6.901758	21.161250	13.428419	-0.098173	0.081519	3.421814	0.000000	0.002414	0.000000	0.000006	0.000001	0.000000	0.000000
7.450818	20.908400	13.599694	0.555962	-0.395302	3.394936	0.000000	-0.100171	0.000000	0.000007	0.000001	0.000000	0.000000
7.999878	19.954644	14.306871	1.170826	-0.900279	3.312139	0.000000	-0.200980	0.000000	0.000007	0.000000	0.000000	0.000000
8.548938	18.367351	15.600321	1.702989	-1.469381	3.174891	0.000000	-0.298223	0.000000	0.000007	0.000000	0.000000	0.000000
9.097998	16.258638	17.572174	2.114862	-2.143143	2.985626	0.000000	-0.390177	0.000000	0.000007	0.000000	0.000000	0.000000
9.543958	14.613452	19.329199	1.587344	-1.780074	2.829930	0.000000	-0.308466	0.000000	0.000007	0.000000	0.000000	0.000000
9.984918	13.416824	20.709063	1.136637	-1.337246	2.711156	0.000000	-0.230753	0.000000	0.000007	0.000000	0.000000	0.000000
10.425878	12.593370	21.669964	0.737860	-0.833574	2.626039	0.000000	-0.155668	0.000000	0.000008	0.000001	0.000000	0.000000
10.866838	12.105467	22.168182	0.372793	-0.291975	2.573609	0.000000	-0.082355	0.000000	0.000008	0.000001	0.000000	0.000000
11.309048	11.930691	22.180528	0.053909	0.208459	2.553249	0.000000	-0.016242	0.000000	0.000008	0.000001	0.000000	0.000000
11.606371	11.906065	22.060727	0.028916	0.194472	2.548420	0.000000	-0.016242	0.000000	0.000009	0.000001	0.000000	0.000000
12.086371	11.897674	21.884873	-0.011434	0.171891	2.540623	0.000000	-0.016242	0.000000	0.000009	0.000001	0.000000	0.000000
12.566371	11.928018	21.730697	-0.051783	0.149310	2.532827	0.000000	-0.016242	0.000000	0.000010	0.000001	0.000000	0.000000
13.046371	11.997097	21.598198	-0.092132	0.126729	2.525030	0.000000	-0.016242	0.000000	0.000010	0.000001	0.000000	0.000000
13.526371	12.104911	21.487378	-0.132481	0.104148	2.517233	0.000000	-0.016242	0.000000	0.000011	0.000001	0.000000	0.000000
14.007621	12.251894	21.398031	-0.172936	0.081508	2.509416	0.000000	-0.016242	0.000000	0.000011	0.000001	0.000000	0.000000
14.304943	12.362160	21.353721	-0.167617	0.015161	2.504587	0.000000	-0.022383	0.000000	0.000011	0.000001	0.000000	0.000000
14.745903	12.668539	21.106631	-0.529817	0.543053	2.510350	0.000000	0.048548	0.000000	0.000012	0.000001	0.000000	0.000000
15.186863	13.303775	20.403141	-0.916224	1.046236	2.547482	0.000000	0.120032	0.000000	0.000012	0.000002	0.000000	0.000000
15.627823	14.296893	19.275259	-1.344490	1.501817	2.616407	0.000000	0.192883	0.000000	0.000013	0.000002	0.000000	0.000000
16.068783	15.693263	17.774304	-1.834182	1.889066	2.717910	0.000000	0.267931	0.000000	0.000014	0.000002	0.000000	0.000000
16.514743	17.580339	15.947063	-2.412431	2.191109	2.854842	0.000000	0.346494	0.000000	0.000015	0.000003	0.000000	0.000000
17.063803	20.004001	13.906765	-1.975639	1.546808	3.021353	0.000000	0.259146	0.000000	0.000016	0.000002	0.000000	0.000000
17.612863	21.868081	12.509698	-1.399299	1.012683	3.138569	0.000000	0.167202	0.000000	0.000018	0.000002	0.000000	0.000000
18.161923	23.040907	11.656349	-0.724118	0.550689	3.204414	0.000000	0.072292	0.000000	0.000018	0.000001	0.000000	0.000000
18.710983	23.439639	11.285939	0.002210	0.127919	3.217719	0.000000	-0.023900	0.000000	0.000019	0.000000	0.000000	0.000000
19.009556	23.478701	11.200041	-0.071806	0.130292	3.213092	0.000000	-0.015494	0.000000	0.000019	0.000000	0.000000	0.000000
19.342889	23.531328	11.123269	-0.086076	0.100025	3.207928	0.000000	-0.015494	0.000000	0.000019	0.000000	0.000000	0.000000
19.676223	23.593469	11.066675	-0.100347	0.069758	3.202763	0.000000	-0.015494	0.000000	0.000019	0.000000	0.000000	0.000000
20.010806	23.665704	11.030023	-0.231924	0.094027	3.197599	0.000000	0.000349	0.000000	0.000019	0.000001	0.000000	0.000000
20.308129	23.807552	10.982196	-0.307358	0.095523	3.197702	0.000000	0.008703	0.000000	0.000019	0.000001	0.000000	0.000000
20.857189	23.734447	11.099483	0.439715	-0.310398	3.176256	0.000000	-0.086709	0.000000	0.000019	-0.000000	0.000000	0.000000
21.406249	22.853236	11.671972	1.155729	-0.738427	3.102768	0.000000	-0.180582	0.000000	0.000019	-0.000001	0.000000	0.000000
21.955309	21.226162	12.740439	1.790108	-1.219053	2.978543	0.000000	-0.271253	0.000000	0.000019	-0.000001	0.000000	0.000000
22.504369	18.968154	14.380990	2.298043	-1.786510	2.805785	0.000000	-0.357112	0.000000	0.000018	-0.000002	0.000000	0.000000
22.950329	17.188639	15.853896	1.706344	-1.502330	2.663824	0.000000	-0.279888	0.000000	0.000017	-0.000001	0.000000	0.000000
23.391289	15.913086	17.028223	1.197301	-1.150651	2.556731	0.000000	-0.206306	0.000000	0.000017	-0.000001	0.000000	0.000000
23.832249	15.060742	17.868039	0.742958	-0.746618	2.481535	0.000000	-0.135074	0.000000	0.000016	-0.000001	0.000000	0.000000
24.273209	14.592667	18.335131	0.322560	-0.308614	2.437381	0.000000	-0.065381	0.000000	0.000016	-0.000000	0.000000	0.000000
24.715418	14.487594	18.408003	-0.047666	0.098227	2.423762	0.000000	-0.002374	0.000000	0.000016	0.000000	0.000000	0.000000
25.012741	14.522054	18.354441	-0.068236	0.081920	2.423056	0.000000	-0.002374	0.000000	0.000016	0.000000	0.000000	0.000000
25.346075	14.575232	18.305923	-0.091296	0.063637	2.422265	0.000000	-0.002374	0.000000	0.000016	0.000000	0.000000	0.000000
25.679408	14.643782	18.269592	-0.114357	0.045354	2.421473	0.000000	-0.002374	0.000000	0.000016	0.000000	0.000000	0.000000
26.013991	14.727752	18.245753	-0.018022	-0.121016	2.420654	0.000000	-0.022012	0.000000	0.000016	0.000000	0.000000	0.000000
26.311314	14.744473	18.322630	-0.002065	-0.182475	2.414109	0.000000	-0.027932	0.000000	0.000016	0.000000	0.000000	0.000000
26.752274	14.927954	18.284844	-0.415608	0.267841	2.416906	0.000000	0.040629	0.000000	0.000017	0.000000	0.000000	0.000000
27.193234	15.483110	17.853792	-0.848139	0.705970	2.450008	0.000000	0.109652	0.000000	0.000017	0.000001	0.000000	0.000000
27.634194	16.435305	17.049086	-1.319419	1.111979	2.513793	0.000000	0.179924	0.000000	0.000017	0.000001	0.000000	0.000000
28.075154	17.828041	15.907341	-1.850980	1.467393	2.608987	0.000000	0.252246	0.000000	0.000018	0.000002	0.000000	0.000000
28.521114	19.749145	14.463306	-2.472073	1.756955	2.738277	0.000000	0.327884	0.000000	0.000019	0.000002	0.000000	0.000000
29.070174	22.190884	12.854361	-1.948725	1.190705	2.895634	0.000000	0.244461	0.000000	0.000020	0.000002	0.000000	0.000000
29.619234	23.978474	11.817285	-1.287728	0.709266	3.005927	0.000000	0.156703	0.000000	0.000021	0.000001	0.000000	0.000000
30.168294	24.985648	11.278208	-0.535773	0.278346	3.067201	0.000000	0.066165	0.000000	0.000021	0.000000	0.000000	0.000000
30.717354	25.141265	11.198734	0.254027	-0.132747	3.078368	0.000000	-0.025547	0.000000	0.000021	-0.000000	0.000000	0.000000
31.015927	25.032465	11.268580	0.176052	-0.130439	3.073142	0.000000	-0.017505	0.000000	0.000021	-0.000000	0.000000	0.000000
31.349260	24.919674	11.365567	0.162323	-0.160523	3.067307	0.000000	-0.017505	0.000000	0.000021	-0.000000	0.000000	0.000000
31.682593	24.816035	11.482610	0.148594	-0.190607	3.061472	0.000000	-0.017505	0.000000	0.000021	-0.000000	0.000000	0.000000
32.017177	24.721211	11.620261	0.134814	-0.220804	3.055616	0.000000	-0.017505	0.000000	0.000021	-0.000000	0.000000	0.000000
32.314499	24.644686	11.759540	0.058187	-0.216918	3.050411	0.000000	-0.009536	0.000000	0.000021	-0.000000	0.000000	0.000000
32.863559	24.158550	12.236963	0.821967	-0.657742	3.020287	0.000000	-0.100035	0.000000	0.000020	-0.000001	0.000000	0.000000
33.412619	22.860765	13.221195	1.527688	-1.145416	2.940888	0.000000	-0.188759	0.000000	0.000020	-0.000002	0.000000	0.000000
33.961679	20.843000	14.782343	2.125499	-1.714676	2.813623	0.000000	-0.274135	0.000000	0.000019	-0.000002	0.000000	0.000000
34.510739	18.247781	17.031602	2.573177	-2.406068	2.640750	0.000000	-0.354649	0.000000	0.000017	-0.000003	0.000000	0.000000
34.956699	16.229898	19.043479	1.967840	-2.086434	2.498937	0.000000	-0.281704	0.000000	0.000016	-0.000002	0.000000	0.000000
35.397659	14.725202	20.707401	1.457422	-1.672615	2.390103	0.000000	-0.212395	0.000000	0.000015	-0.000002	0.000000	0.000000
35.838619	13.639702	21.971288	1.013590	-1.182693	2.311269	0.000000	-0.145506	0.000000	0.000014	-0.000002	0.000000	0.000000
36.279579	12.923805	22.777632	0.616066	-0.638959	2.261537	0.000000	-0.080273	0.000000	0.000014	-0.000001	0.000000	0.000000
36.721789	12.544109	23.090054	0.277340	-0.122824	2.240314	0.000000	-0.021448	0.000000	0.000013	-0.000001	0.000000	0.000000
37.019112	12.386779	23.166977	0.251815	-0.135895	2.233937	0.000000	-0.021448	0.000000	0.000013	-0.000001	0.000000	0.000000
37.352445	12.228442	23.262458	0.223198	-0.150549	2.226788	0.000000	-0.021448	0.000000	0.000013	-0.000001	0.000000	0.000000
37.685779	12.089182	23.367709	0.194581	-0.165203	2.219639	0.000000	-0.021448	0.000000	0.000013	-0.000001	0.000000	0.000000
38.020362	11.968586	23.483178	0.165857	-0.179912	2.212463	0.000000	-0.021448	0.000000	0.000012	-0.000001	0.000000	0.000000
38.317684	11.877549	23.594048	0.169456	-0.250836	2.206086	0.000000	-0.026858	0.000000	0.000012	-0.000001	0.000000	0.000000
38.758644	11.879534	23.553934	-0.173976	0.341461	2.208173	0.000000	0.036331	0.000000	0.000012	-0.000001	0.000000	0.000000
39.199604	12.186746	22.996342	-0.525356	0.918222	2.238188	0.000000	0.099933	0.000000	0.000011	-0.000000	0.000000	0.000000
39.640564	12.813220	21.946642	-0.900738	1.453205	2.296474	0.000000	0.164674	0.000000	0.000011	-0.000000	0.000000	0.000000
40.081524	13.787577	20.452596	-1.317272	1.922068	2.383693	0.000000	0.231290	0.000000	0.000011	0.000000	0.000000	0.000000
40.527484	15.171909	18.559610	-1.797815	2.304762	2.502311	0.000000	0.300946	0.000000	0.000012	0.000001	0.000000	0.000000
41.076544	16.938490	16.432373	-1.400603	1.592432	2.647014	0.000000	0.225374	0.000000	0.000012	0.000000	0.000000	0.000000
41.625604	18.211644	15.020859	-0.904459	0.993526	2.749064	0.000000	0.145805	0.000000	0.000012	-0.000000	0.000000	0.000000
42.174664	18.901442	14.224527	-0.344429	0.465388	2.806651	0.000000	0.063649	0.000000	0.000012	-0.000001	0.000000	0.000000
42.723724	18.959159	13.986659	0.239930	-0.029602	2.818752	0.000000	-0.019635	0.000000	0.000011	-0.000001	0.000000	0.000000
43.022297	18.850336	13.988888	0.174079	-0.014408	2.815089	0.000000	-0.012271	0.000000	0.000011	-0.000001	0.000000	0.000000
43.502297	18.695813	14.019194	0.147844	-0.048728	2.809199	0.000000	-0.012271	0.000000	0.000011	-0.000001	0.000000	0.000000
43.982297	18.566476	14.082447	0.121608	-0.083048	2.803309	0.000000	-0.012271	0.000000	0.000010	-0.000001	0.000000	0.000000
44.462297	18.462325	14.178647	0.095373	-0.117369	2.797419	0.000000	-0.012271	0.000000	0.000010	-0.000001	0.000000	0.000000
44.942297	18.383360	14.307795	0.069138	-0.151689	2.791530	0.000000	-0.012271	0.000000	0.000009	-0.000001	0.000000	0.000000
45.423547	18.329701	14.470175	-0.047982	-0.114404	2.785642	0.000000	0.001531	0.000000	0.000009	-0.000001	0.000000	0.000000
45.720870	18.363067	14.544394	-0.112216	-0.097221	2.786097	0.000000	0.008810	0.000000	0.000009	-0.000001	0.000000	0.000000
46.269930	18.177094	14.932456	0.448921	-0.613726	2.768360	0.000000	-0.073326	0.000000	0.000008	-0.000001	0.000000	0.000000
46.818990	17.388770	15.908235	0.978349	-1.173945	2.705817	0.000000	-0.154160	0.000000	0.000007	-0.000001	0.000000	0.000000
47.368050	16.053778	17.541232	1.438670	-1.817781	2.599577	0.000000	-0.232260	0.000000	0.000007	-0.000002	0.000000	0.000000
47.917110	14.266416	19.947764	1.797372	-2.591094	2.451526	0.000000	-0.306241	0.000000	0.000006	-0.000002	0.000000	0.000000
48.363070	12.875500	22.087379	1.332604	-2.186508	2.330248	0.000000	-0.237937	0.000000	0.000005	-0.000002	0.000000	0.000000
48.804030	11.880459	23.800510	0.932488	-1.683711	2.239789	0.000000	-0.172740	0.000000	0.000004	-0.000002	0.000000	0.000000
49.244990	11.218240	25.034610	0.574976	-1.104307	2.177618	0.000000	-0.109511	0.000000	0.000003	-0.000001	0.000000	0.000000
49.685950	10.858587	25.733530	0.243732	-0.474657	2.143027	0.000000	-0.047529	0.000000	0.000003	-0.000001	0.000000	0.000000
50.128160	10.785193	25.865186	-0.050044	0.113112	2.135634	0.000000	0.008674	0.000000	0.000002	-0.000001	0.000000	0.000000
50.425482	10.823168	25.801386	-0.077681	0.101470	2.138213	0.000000	0.008674	0.000000	0.000002	-0.000001	0.000000	0.000000
50.758816	10.885284	25.738090	-0.108665	0.088417	2.141105	0.000000	0.008674	0.000000	0.000001	-0.000001	0.000000	0.000000
51.092149	10.968055	25.683496	-0.139649	0.075365	2.143997	0.000000	0.008674	0.000000	0.000001	-0.000001	0.000000	0.000000
51.426732	11.071685	25.637968	-0.080929	-0.145724	2.146878	0.000000	-0.008742	0.000000	0.000001	-0.000001	0.000000	0.000000
51.724055	11.127845	25.728143	-0.080670	-0.220660	2.144279	0.000000	-0.014001	0.000000	0.000000	-0.000001	0.000000	0.000000
52.165015	11.344284	25.636512	-0.412029	0.427668	2.151694	0.000000	0.047663	0.000000	-0.000000	-0.000001	0.000000	0.000000
52.605975	11.860120	24.979536	-0.762211	1.056539	2.186395	0.000000	0.109870	0.000000	-0.000001	-0.000001	0.000000	0.000000
53.046935	12.698920	23.787107	-1.147217	1.637337	2.248775	0.000000	0.173328	0.000000	-0.000001	-0.000001	0.000000	0.000000
53.487895	13.899005	22.113480	-1.584637	2.143638	2.339547	0.000000	0.238760	0.000000	-0.000002	-0.000001	0.000000	0.000000
53.933855	15.535777	20.009779	-2.098683	2.553742	2.461247	0.000000	0.307311	0.000000	-0.000003	-0.000001	0.000000	0.000000
54.482915	17.643075	17.642578	-1.716609	1.783077	2.609800	0.000000	0.233007	0.000000	-0.000003	-0.000001	0.000000	0.000000
55.031975	19.261341	16.047369	-1.213283	1.139417	2.716360	0.000000	0.154571	0.000000	-0.000004	-0.000001	0.000000	0.000000
55.581035	20.276269	15.110530	-0.624257	0.576915	2.779035	0.000000	0.073392	0.000000	-0.000005	-0.000001	0.000000	0.000000
56.130095	20.616168	14.765331	0.008864	0.055505	2.796715	0.000000	-0.009088	0.000000	-0.000005	-0.000001	0.000000	0.000000
56.428668	20.647376	14.715239	-0.059517	0.073686	2.796184	0.000000	-0.001780	0.000000	-0.000006	-0.000001	0.000000	0.000000
56.762001	20.692454	14.673706	-0.075718	0.050911	2.795591	0.000000	-0.001780	0.000000	-0.000006	-0.000001	0.000000	0.000000
57.095334	20.748333	14.647358	-0.091919	0.028135	2.794998	0.000000	-0.001780	0.000000	-0.000006	-0.000001	0.000000	0.000000
57.429918	20.815284	14.636179	-0.108181	0.005275	2.794403	0.000000	-0.001780	0.000000	-0.000007	-0.000001	0.000000	0.000000
57.727240	20.883910	14.639083	-0.177201	0.023211	2.793874	0.000000	0.005520	0.000000	-0.000007	-0.000001	0.000000	0.000000
58.276300	20.722217	14.894695	0.469948	-0.491506	2.774267	0.000000	-0.076837	0.000000	-0.000007	-0.000001	0.000000	0.000000
58.825360	19.863979	15.731321	1.083903	-1.041231	2.709749	0.000000	-0.157830	0.000000	-0.000008	-0.000000	0.000000	0.000000
59.374420	18.369818	17.208551	1.621296	-1.665121	2.601465	0.000000	-0.236025	0.000000	-0.000008	-0.000000	0.000000	0.000000
59.923480	16.345273	19.431605	2.044169	-2.407614	2.451335	0.000000	-0.310033	0.000000	-0.000008	0.000000	0.000000	0.000000
60.369440	14.760682	21.407473	1.521628	-2.004280	2.328361	0.000000	-0.241756	0.000000	-0.000008	-0.000000	0.000000	0.000000
60.810400	13.620963	22.963549	1.072809	-1.511127	2.236203	0.000000	-0.176630	0.000000	-0.000008	-0.000000	0.000000	0.000000
61.251360	12.854038	24.052607	0.673004	-0.949219	2.172293	0.000000	-0.113516	0.000000	-0.000008	-0.000001	0.000000	0.000000
61.692320	12.424871	24.625098	0.303946	-0.344123	2.135902	0.000000	-0.051694	0.000000	-0.000008	-0.000001	0.000000	0.000000
62.134530	12.313905	24.654432	-0.021127	0.216112	2.126623	0.000000	0.004323	0.000000	-0.000009	-0.000001	0.000000	0.000000
62.431853	12.333650	24.529676	-0.045283	0.203489	2.127908	0.000000	0.004323	0.000000	-0.000009	-0.000001	0.000000	0.000000
62.765186	12.372866	24.398733	-0.072365	0.189337	2.129349	0.000000	0.004323	0.000000	-0.000010	-0.000001	0.000000	0.000000
63.098520	12.430136	24.277226	-0.099447	0.175186	2.130791	0.000000	0.004323	0.000000	-0.000010	-0.000001	0.000000	0.000000
63.433103	12.505778	24.164750	-0.126630	0.160981	2.132238	0.000000	0.004323	0.000000	-0.000010	-0.000001	0.000000	0.000000
63.730426	12.588260	24.072776	-0.119913	0.089318	2.133523	0.000000	-0.000910	0.000000	-0.000010	-0.000001	0.000000	0.000000
64.171386	12.854325	23.728891	-0.485754	0.687570	2.146661	0.000000	0.060551	0.000000	-0.000011	-0.000001	0.000000	0.000000
64.612346	13.451563	22.869228	-0.873789	1.254538	2.187026	0.000000	0.122701	0.000000	-0.000012	-0.000002	0.000000	0.000000
65.053306	14.407260	21.532901	-1.301744	1.764425	2.255079	0.000000	0.186248	0.000000	-0.000012	-0.000002	0.000000	0.000000
65.494266	15.765078	19.780712	-1.789172	2.194033	2.351595	0.000000	0.251917	0.000000	-0.000013	-0.000002	0.000000	0.000000
65.940226	17.610214	17.667590	-2.363034	2.524567	2.479245	0.000000	0.320857	0.000000	-0.000014	-0.000003	0.000000	0.000000
66.489286	19.975532	15.303668	-1.919407	1.806247	2.635054	0.000000	0.245853	0.000000	-0.000016	-0.000002	0.000000	0.000000
67.038346	21.775910	13.653693	-1.340203	1.216581	2.748422	0.000000	0.166488	0.000000	-0.000017	-0.000002	0.000000	0.000000
67.587406	22.884180	12.600143	-0.666335	0.713570	2.817337	0.000000	0.084170	0.000000	-0.000017	-0.000001	0.000000	0.000000
68.136466	23.222058	12.067975	0.054601	0.261386	2.840577	0.000000	0.000358	0.000000	-0.000018	-0.000000	0.000000	0.000000
68.435038	23.229530	11.901079	-0.018941	0.266058	2.842900	0.000000	0.007781	0.000000	-0.000018	-0.000000	0.000000	0.000000
68.768372	23.246942	11.733704	-0.033296	0.236067	2.845494	0.000000	0.007781	0.000000	-0.000018	-0.000000	0.000000	0.000000
69.101705	23.273924	11.586324	-0.047650	0.206075	2.848088	0.000000	0.007781	0.000000	-0.000018	-0.000000	0.000000	0.000000
69.436288	23.310631	11.458497	-0.062059	0.175971	2.850692	0.000000	0.007781	0.000000	-0.000018	-0.000000	0.000000	0.000000
69.733611	23.351341	11.361811	-0.135885	0.178911	2.853006	0.000000	0.015237	0.000000	-0.000018	-0.000001	0.000000	0.000000
70.282671	23.099512	11.392883	0.591824	-0.235837	2.838193	0.000000	-0.069113	0.000000	-0.000019	0.000000	0.000000	0.000000
