#ParticleID	Turn	x[m]	xp	y[m]	yp	z[m]	dE[GeV]# s	beta_x	beta_y	alpha_x	alpha_y	D_x	D_y	D_px	D_py	orbit_x	orbit_px	orbit_y	orbit_py
0.300000	11.828576	24.959785	-0.012896	-0.027724	2.618211	0.000000	-0.000025	0.000000	-0.000000	0.000000	0.000000	0.000000
0.601250	11.844019	24.980128	-0.038368	-0.039803	2.618203	0.000000	-0.000025	0.000000	0.000000	0.000000	0.000000	0.000000
0.898573	11.874309	25.007340	-0.034389	-0.113049	2.618196	0.000000	-0.006446	0.000000	0.000000	0.000000	0.000000	0.000000
1.339533	12.056950	24.829675	-0.381373	0.514423	2.631647	0.000000	0.067513	0.000000	0.000000	0.000000	0.000000	0.000000
1.780493	12.552101	24.106875	-0.745780	1.118489	2.677850	0.000000	0.142242	0.000000	0.000000	0.000000	0.000000	0.000000
2.221453	13.382384	22.871829	-1.144261	1.671665	2.757330	0.000000	0.218590	0.000000	0.000000	0.000000	0.000000	0.000000
2.662413	14.585732	21.180729	-1.595019	2.148782	2.870993	0.000000	0.297428	0.000000	0.000001	0.000000	0.000000	0.000000
3.108373	16.237919	19.085717	-2.122948	2.529261	3.021995	0.000000	0.380142	0.000000	0.000001	0.000000	0.000000	0.000000
3.657433	18.356533	16.732804	-1.712830	1.781381	3.205444	0.000000	0.287105	0.000000	0.000001	0.000000	0.000000	0.000000
4.206493	19.955282	15.127076	-1.181727	1.160385	3.336335	0.000000	0.188974	0.000000	0.000001	0.000000	0.000000	0.000000
4.755553	20.921240	14.154160	-0.567152	0.622041	3.412345	0.000000	0.087492	0.000000	0.000001	0.000000	0.000000	0.000000
5.304613	21.186175	13.744757	0.087483	0.128004	3.432126	0.000000	-0.015542	0.000000	0.000001	0.000000	0.000000	0.000000
5.603185	21.171202	13.653536	0.018021	0.141609	3.430163	0.000000	-0.006575	0.000000	0.000001	0.000000	0.000000	0.000000
5.936519	21.164438	13.567431	0.002271	0.116706	3.427972	0.000000	-0.006575	0.000000	0.000001	0.000000	0.000000	0.000000
6.269852	21.168174	13.497928	-0.013479	0.091803	3.425780	0.000000	-0.006575	0.000000	0.000002	0.000000	0.000000	0.000000
6.604435	21.182483	13.444860	-0.029287	0.066806	3.423580	0.000000	-0.006575	0.000000	0.000002	0.000000	0.000000	0.000000
6.901758	21.204075	13.411738	-0.098737	0.079635	3.421626	0.000000	0.002365	0.000000	0.000002	0.000000	0.000000	0.000000
7.450818	20.951054	13.584830	0.556836	-0.396748	3.394724	0.000000	-0.100213	0.000000	0.000002	0.000000	0.000000	0.000000
7.999878	19.995572	14.293403	1.173077	-0.901390	3.311906	0.000000	-0.201014	0.000000	0.000002	0.000000	0.000000	0.000000
8.548938	18.405119	15.587927	1.706458	-1.470236	3.174641	0.000000	-0.298250	0.000000	0.000002	0.000000	0.000000	0.000000
9.097998	16.292038	17.560607	2.119303	-2.143804	2.985364	0.000000	-0.390195	0.000000	0.000002	-0.000000	0.000000	0.000000
9.543958	14.643339	19.318423	1.590807	-1.781182	2.829658	0.000000	-0.308491	0.000000	0.000002	0.000000	0.000000	0.000000
9.984918	13.444027	20.699442	1.139286	-1.338748	2.710872	0.000000	-0.230785	0.000000	0.000002	0.000000	0.000000	0.000000
10.425878	12.618549	21.661817	0.739816	-0.835402	2.625739	0.000000	-0.155708	0.000000	0.000002	0.000000	0.000000	0.000000
10.866838	12.129193	22.161761	0.374147	-0.294045	2.573290	0.000000	-0.082403	0.000000	0.000002	0.000000	0.000000	0.000000
11.309048	11.953462	22.176009	0.054779	0.206249	2.552907	0.000000	-0.016298	0.000000	0.000002	0.000000	0.000000	0.000000
11.606371	11.928306	22.057520	0.029831	0.192271	2.548061	0.000000	-0.016298	0.000000	0.000002	0.000000	0.000000	0.000000
12.086371	11.919000	21.883771	-0.010445	0.169705	2.540238	0.000000	-0.016298	0.000000	0.000002	0.000000	0.000000	0.000000
12.566371	11.948360	21.731686	-0.050721	0.147140	2.532415	0.000000	-0.016298	0.000000	0.000002	0.000000	0.000000	0.000000
13.046371	12.016385	21.601263	-0.090998	0.124574	2.524592	0.000000	-0.016298	0.000000	0.000002	0.000000	0.000000	0.000000
13.526371	12.123075	21.492504	-0.131274	0.102008	2.516769	0.000000	-0.016298	0.000000	0.000002	0.000000	0.000000	0.000000
14.007621	12.268860	21.405209	-0.171655	0.079384	2.508925	0.000000	-0.016298	0.000000	0.000003	0.000000	0.000000	0.000000
14.304943	12.378351	21.362160	-0.166248	0.013021	2.504079	0.000000	-0.022439	0.000000	0.000003	0.000000	0.000000	0.000000
14.745903	12.683670	21.116842	-0.528774	0.541188	2.509815	0.000000	0.048479	0.000000	0.000003	0.000000	0.000000	0.000000
15.186863	13.318111	20.414844	-0.915458	1.044731	2.546914	0.000000	0.119949	0.000000	0.000003	0.000000	0.000000	0.000000
15.627823	14.310661	19.288106	-1.343966	1.500739	2.615800	0.000000	0.192785	0.000000	0.000003	0.000000	0.000000	0.000000
16.068783	15.706667	17.787894	-1.833876	1.888466	2.717257	0.000000	0.267817	0.000000	0.000003	0.000000	0.000000	0.000000
16.514743	17.593561	15.960963	-2.412329	2.191017	2.854135	0.000000	0.346361	0.000000	0.000003	0.000001	0.000000	0.000000
17.063803	20.016783	13.920911	-1.974945	1.546450	3.020580	0.000000	0.259038	0.000000	0.000004	0.000000	0.000000	0.000000
17.612863	21.879795	12.524395	-1.398062	1.012032	3.137745	0.000000	0.167120	0.000000	0.000004	0.000000	0.000000	0.000000
18.161923	23.051003	11.671942	-0.722426	0.549700	3.203553	0.000000	0.072237	0.000000	0.000004	0.000000	0.000000	0.000000
18.710983	23.447678	11.302835	0.004239	0.126521	3.216835	0.000000	-0.023926	0.000000	0.000004	0.000000	0.000000	0.000000
19.009556	23.485544	11.217728	-0.069798	0.128993	3.212201	0.000000	-0.015522	0.000000	0.000004	0.000000	0.000000	0.000000
19.342889	23.536830	11.141802	-0.084061	0.098784	3.207027	0.000000	-0.015522	0.000000	0.000004	0.000000	0.000000	0.000000
19.676223	23.597624	11.086016	-0.098323	0.068575	3.201853	0.000000	-0.015522	0.000000	0.000004	0.000000	0.000000	0.000000
20.010806	23.668502	11.050137	-0.229905	0.093001	3.196680	0.000000	0.000317	0.000000	0.000004	0.000000	0.000000	0.000000
20.308129	23.809146	11.002904	-0.305338	0.094609	3.196774	0.000000	0.008669	0.000000	0.000004	0.000000	0.000000	0.000000
20.857189	23.733805	11.121517	0.441744	-0.311914	3.175317	0.000000	-0.086712	0.000000	0.000004	-0.000000	0.000000	0.000000
21.406249	22.850427	11.696049	1.157624	-0.740655	3.101836	0.000000	-0.180556	0.000000	0.000004	-0.000000	0.000000	0.000000
21.955309	21.221408	12.767424	1.791735	-1.222151	2.977634	0.000000	-0.271196	0.000000	0.000004	-0.000000	0.000000	0.000000
22.504369	18.961816	14.411951	2.299287	-1.790698	2.804913	0.000000	-0.357027	0.000000	0.000004	-0.000000	0.000000	0.000000
22.950329	17.181191	15.888287	1.707598	-1.505804	2.662986	0.000000	-0.279825	0.000000	0.000004	-0.000000	0.000000	0.000000
23.391289	15.904507	17.065305	1.198623	-1.153255	2.555915	0.000000	-0.206264	0.000000	0.000004	-0.000000	0.000000	0.000000
23.832249	15.050946	17.906989	0.744409	-0.748234	2.480733	0.000000	-0.135053	0.000000	0.000004	-0.000000	0.000000	0.000000
24.273209	14.581511	18.375042	0.324204	-0.309169	2.436584	0.000000	-0.065380	0.000000	0.000004	-0.000000	0.000000	0.000000
24.715418	14.474870	18.447923	-0.045779	0.098656	2.422961	0.000000	-0.002393	0.000000	0.000004	0.000000	0.000000	0.000000
25.012741	14.508212	18.394096	-0.066363	0.082382	2.422249	0.000000	-0.002393	0.000000	0.000004	0.000000	0.000000	0.000000
25.346075	14.560146	18.345256	-0.089439	0.064138	2.421451	0.000000	-0.002393	0.000000	0.000004	0.000000	0.000000	0.000000
25.679408	14.627465	18.308580	-0.112516	0.045893	2.420654	0.000000	-0.002393	0.000000	0.000004	0.000000	0.000000	0.000000
26.013991	14.710209	18.284368	-0.016340	-0.120752	2.419828	0.000000	-0.022025	0.000000	0.000004	0.000000	0.000000	0.000000
26.311314	14.725936	18.361078	-0.000447	-0.182275	2.413280	0.000000	-0.027942	0.000000	0.000004	-0.000000	0.000000	0.000000
26.752274	14.907784	18.322655	-0.413509	0.269078	2.416067	0.000000	0.040597	0.000000	0.000004	0.000000	0.000000	0.000000
27.193234	15.460842	17.890074	-0.845463	0.708188	2.449151	0.000000	0.109598	0.000000	0.000004	0.000000	0.000000	0.000000
27.634194	16.410378	17.083017	-1.316043	1.115076	2.512907	0.000000	0.179848	0.000000	0.000004	0.000000	0.000000	0.000000
28.075154	17.799772	15.938203	-1.846750	1.471229	2.608062	0.000000	0.252146	0.000000	0.000004	0.000000	0.000000	0.000000
28.521114	19.716648	14.490480	-2.466787	1.761356	2.737303	0.000000	0.327759	0.000000	0.000004	0.000000	0.000000	0.000000
29.070174	22.153005	12.877292	-1.944269	1.194077	2.894601	0.000000	0.244369	0.000000	0.000004	0.000000	0.000000	0.000000
29.619234	23.936303	11.836965	-1.284416	0.711849	3.004853	0.000000	0.156645	0.000000	0.000004	0.000000	0.000000	0.000000
30.168294	24.940580	11.295398	-0.533840	0.280325	3.066105	0.000000	0.066142	0.000000	0.000005	0.000000	0.000000	0.000000
30.717354	25.094898	11.214017	0.254445	-0.131232	3.077270	0.000000	-0.025534	0.000000	0.000005	-0.000000	0.000000	0.000000
31.015927	24.985788	11.282918	0.176557	-0.128835	3.072047	0.000000	-0.017494	0.000000	0.000004	-0.000000	0.000000	0.000000
31.349260	24.872669	11.378819	0.162800	-0.158868	3.066215	0.000000	-0.017494	0.000000	0.000004	-0.000000	0.000000	0.000000
31.682593	24.768722	11.494742	0.149043	-0.188902	3.060384	0.000000	-0.017494	0.000000	0.000004	-0.000000	0.000000	0.000000
32.017177	24.673607	11.631235	0.135235	-0.219048	3.054531	0.000000	-0.017494	0.000000	0.000004	-0.000000	0.000000	0.000000
32.314499	24.596838	11.769456	0.058700	-0.215087	3.049330	0.000000	-0.009527	0.000000	0.000004	-0.000000	0.000000	0.000000
32.863559	24.111016	12.244978	0.820887	-0.656090	3.019220	0.000000	-0.099990	0.000000	0.000004	-0.000000	0.000000	0.000000
33.412619	22.815263	13.227440	1.525091	-1.143826	2.939854	0.000000	-0.188681	0.000000	0.000004	-0.000000	0.000000	0.000000
33.961679	20.801103	14.786823	2.121571	-1.713033	2.812641	0.000000	-0.274024	0.000000	0.000004	-0.000000	0.000000	0.000000
34.510739	18.210808	17.034196	2.568193	-2.404257	2.639836	0.000000	-0.354507	0.000000	0.000004	-0.000001	0.000000	0.000000
34.956699	16.196865	19.044327	1.963960	-2.084345	2.498080	0.000000	-0.281585	0.000000	0.000003	-0.000001	0.000000	0.000000
35.397659	14.695176	20.706320	1.454459	-1.670346	2.389293	0.000000	-0.212298	0.000000	0.000003	-0.000000	0.000000	0.000000
35.838619	13.611937	21.968163	1.011408	-1.180347	2.310496	0.000000	-0.145429	0.000000	0.000003	-0.000000	0.000000	0.000000
36.279579	12.897658	22.772444	0.614565	-0.636644	2.260793	0.000000	-0.080216	0.000000	0.000003	-0.000000	0.000000	0.000000
36.721789	12.519014	23.082870	0.276394	-0.120632	2.239591	0.000000	-0.021409	0.000000	0.000003	-0.000000	0.000000	0.000000
37.019112	12.362258	23.158489	0.250830	-0.133700	2.233226	0.000000	-0.021409	0.000000	0.000003	-0.000000	0.000000	0.000000
37.352445	12.204592	23.252506	0.222170	-0.148351	2.226090	0.000000	-0.021409	0.000000	0.000003	-0.000000	0.000000	0.000000
37.685779	12.066032	23.356291	0.193509	-0.163002	2.218953	0.000000	-0.021409	0.000000	0.000003	-0.000000	0.000000	0.000000
38.020362	11.946167	23.470286	0.164742	-0.177708	2.211790	0.000000	-0.021409	0.000000	0.000003	-0.000000	0.000000	0.000000
38.317684	11.855805	23.579845	0.168251	-0.248599	2.205425	0.000000	-0.026817	0.000000	0.000002	-0.000000	0.000000	0.000000
38.758644	11.858637	23.537930	-0.174698	0.343291	2.207526	0.000000	0.036354	0.000000	0.000002	-0.000000	0.000000	0.000000
39.199604	12.166286	22.978936	-0.525628	0.919562	2.237548	0.000000	0.099940	0.000000	0.000002	-0.000000	0.000000	0.000000
39.640564	12.792807	21.928295	-0.900573	1.453993	2.295832	0.000000	0.164664	0.000000	0.000002	-0.000000	0.000000	0.000000
40.081524	13.766824	20.433811	-1.316663	1.922269	2.383044	0.000000	0.231264	0.000000	0.000002	0.000000	0.000000	0.000000
40.527484	15.150402	18.540915	-1.796731	2.304362	2.501647	0.000000	0.300903	0.000000	0.000002	0.000000	0.000000	0.000000
41.076544	16.916228	16.413863	-1.400320	1.592492	2.646332	0.000000	0.225353	0.000000	0.000002	0.000000	0.000000	0.000000
41.625604	18.189522	15.002029	-0.904997	0.994052	2.748377	0.000000	0.145806	0.000000	0.000002	-0.000000	0.000000	0.000000
42.174664	18.880347	14.204850	-0.345750	0.466416	2.805969	0.000000	0.063672	0.000000	0.000002	-0.000000	0.000000	0.000000
42.723724	18.939905	13.965545	0.237919	-0.027999	2.818089	0.000000	-0.019591	0.000000	0.000002	-0.000000	0.000000	0.000000
43.022297	18.832256	13.966859	0.172110	-0.012891	2.814438	0.000000	-0.012227	0.000000	0.000002	-0.000000	0.000000	0.000000
43.502297	18.679628	13.995733	0.145867	-0.047264	2.808569	0.000000	-0.012227	0.000000	0.000002	-0.000000	0.000000	0.000000
43.982297	18.552192	14.057605	0.119623	-0.081636	2.802700	0.000000	-0.012227	0.000000	0.000002	-0.000000	0.000000	0.000000
44.462297	18.449951	14.152475	0.093380	-0.116009	2.796831	0.000000	-0.012227	0.000000	0.000002	-0.000000	0.000000	0.000000
44.942297	18.372903	14.280343	0.067137	-0.150382	2.790962	0.000000	-0.012227	0.000000	0.000002	-0.000000	0.000000	0.000000
45.423547	18.321173	14.441491	-0.049948	-0.113292	2.785095	0.000000	0.001571	0.000000	0.000002	-0.000000	0.000000	0.000000
45.720870	18.355711	14.515060	-0.114176	-0.096220	2.785562	0.000000	0.008850	0.000000	0.000002	-0.000000	0.000000	0.000000
46.269930	18.172009	14.901525	0.446770	-0.611802	2.767851	0.000000	-0.073269	0.000000	0.000001	-0.000000	0.000000	0.000000
46.818990	17.386084	15.874626	0.976158	-1.170962	2.705343	0.000000	-0.154087	0.000000	0.000001	-0.000000	0.000000	0.000000
47.368050	16.053449	17.503673	1.436595	-1.813527	2.599147	0.000000	-0.232173	0.000000	0.000001	-0.000000	0.000000	0.000000
47.917110	14.268235	19.904701	1.795559	-2.585265	2.451146	0.000000	-0.306140	0.000000	0.000001	-0.000000	0.000000	0.000000
48.363070	12.878871	22.039518	1.330923	-2.181627	2.329911	0.000000	-0.237846	0.000000	0.000001	-0.000000	0.000000	0.000000
48.804030	11.885284	23.748844	0.930862	-1.679996	2.239490	0.000000	-0.172657	0.000000	0.000001	-0.000000	0.000000	0.000000
49.244990	11.224503	24.980247	0.573328	-1.101927	2.177353	0.000000	-0.109435	0.000000	0.000001	-0.000000	0.000000	0.000000
49.685950	10.866340	25.677699	0.241988	-0.473721	2.142794	0.000000	-0.047460	0.000000	0.000000	-0.000000	0.000000	0.000000
50.128160	10.794560	25.809185	-0.051941	0.112697	2.135430	0.000000	0.008739	0.000000	0.000000	-0.000000	0.000000	0.000000
50.425482	10.833658	25.745639	-0.079559	0.101031	2.138028	0.000000	0.008739	0.000000	0.000000	-0.000000	0.000000	0.000000
50.758816	10.897018	25.682645	-0.110522	0.087951	2.140941	0.000000	0.008739	0.000000	0.000000	-0.000000	0.000000	0.000000
51.092149	10.981020	25.628370	-0.141485	0.074872	2.143854	0.000000	0.008739	0.000000	0.000000	-0.000000	0.000000	0.000000
51.426732	11.085871	25.583180	-0.082628	-0.145799	2.146756	0.000000	-0.008677	0.000000	-0.000000	-0.000000	0.000000	0.000000
51.724055	11.143034	25.673408	-0.082305	-0.220627	2.144176	0.000000	-0.013935	0.000000	-0.000000	-0.000000	0.000000	0.000000
52.165015	11.361080	25.582387	-0.414052	0.426256	2.151619	0.000000	0.047726	0.000000	-0.000000	-0.000000	0.000000	0.000000
52.605975	11.878905	24.927273	-0.764715	1.053746	2.186347	0.000000	0.109931	0.000000	-0.000000	-0.000000	0.000000	0.000000
53.046935	12.720165	23.737871	-1.150316	1.633290	2.248754	0.000000	0.173389	0.000000	-0.000001	-0.000000	0.000000	0.000000
53.487895	13.923297	22.068299	-1.588472	2.138522	2.339551	0.000000	0.238821	0.000000	-0.000001	-0.000000	0.000000	0.000000
53.933855	15.563887	19.969557	-2.103438	2.547786	2.461278	0.000000	0.307372	0.000000	-0.000001	-0.000000	0.000000	0.000000
54.482915	17.676045	17.608025	-1.720653	1.778646	2.609864	0.000000	0.233067	0.000000	-0.000001	-0.000000	0.000000	0.000000
55.031975	19.298228	16.016994	-1.216330	1.136195	2.716454	0.000000	0.154627	0.000000	-0.000001	-0.000000	0.000000	0.000000
55.581035	20.315852	15.083137	-0.626092	0.574673	2.779160	0.000000	0.073446	0.000000	-0.000001	-0.000000	0.000000	0.000000
56.130095	20.657038	14.739939	0.008370	0.054083	2.796867	0.000000	-0.009039	0.000000	-0.000001	-0.000000	0.000000	0.000000
56.428668	20.688595	14.690745	-0.060088	0.072166	2.796351	0.000000	-0.001731	0.000000	-0.000002	-0.000000	0.000000	0.000000
56.762001	20.734043	14.650237	-0.076258	0.049358	2.795774	0.000000	-0.001731	0.000000	-0.000002	-0.000000	0.000000	0.000000
57.095334	20.790272	14.624935	-0.092428	0.026550	2.795197	0.000000	-0.001731	0.000000	-0.000002	-0.000000	0.000000	0.000000
57.429918	20.857552	14.614828	-0.108659	0.003656	2.794617	0.000000	-0.001731	0.000000	-0.000002	-0.000000	0.000000	0.000000
57.727240	20.926454	14.618703	-0.177760	0.021508	2.794103	0.000000	0.005569	0.000000	-0.000002	-0.000000	0.000000	0.000000
58.276300	20.764588	14.875872	0.470819	-0.492654	2.774520	0.000000	-0.076795	0.000000	-0.000002	-0.000000	0.000000	0.000000
58.825360	19.904632	15.713495	1.086142	-1.041907	2.710023	0.000000	-0.157798	0.000000	-0.000002	-0.000000	0.000000	0.000000
59.374420	18.407330	17.191231	1.624745	-1.665374	2.601754	0.000000	-0.236001	0.000000	-0.000002	-0.000000	0.000000	0.000000
59.923480	16.378442	19.414339	2.048584	-2.407460	2.451634	0.000000	-0.310019	0.000000	-0.000002	0.000000	0.000000	0.000000
60.369440	14.790359	21.390325	1.525070	-2.004697	2.328668	0.000000	-0.241734	0.000000	-0.000002	-0.000000	0.000000	0.000000
60.810400	13.647971	22.947012	1.075443	-1.512092	2.236522	0.000000	-0.176600	0.000000	-0.000002	-0.000000	0.000000	0.000000
61.251360	12.879035	24.037147	0.674950	-0.950687	2.172626	0.000000	-0.113477	0.000000	-0.000002	-0.000000	0.000000	0.000000
61.692320	12.448420	24.611131	0.305294	-0.346028	2.136255	0.000000	-0.051647	0.000000	-0.000002	-0.000000	0.000000	0.000000
62.134530	12.336503	24.642312	-0.020262	0.213890	2.126997	0.000000	0.004379	0.000000	-0.000002	-0.000000	0.000000	0.000000
62.431853	12.355721	24.518875	-0.044373	0.201273	2.128299	0.000000	0.004379	0.000000	-0.000002	-0.000000	0.000000	0.000000
62.765186	12.394313	24.389408	-0.071404	0.187127	2.129759	0.000000	0.004379	0.000000	-0.000002	-0.000000	0.000000	0.000000
63.098520	12.450927	24.269372	-0.098436	0.172981	2.131219	0.000000	0.004379	0.000000	-0.000002	-0.000000	0.000000	0.000000
63.433103	12.525875	24.158369	-0.125568	0.158783	2.132684	0.000000	0.004379	0.000000	-0.000002	-0.000000	0.000000	0.000000
63.730426	12.607712	24.067701	-0.118761	0.087143	2.133986	0.000000	-0.000854	0.000000	-0.000002	-0.000000	0.000000	0.000000
64.171386	12.872947	23.725777	-0.485017	0.685317	2.147150	0.000000	0.060618	0.000000	-0.000003	-0.000000	0.000000	0.000000
64.612346	13.469705	22.868097	-0.873432	1.252309	2.187548	0.000000	0.122782	0.000000	-0.000003	-0.000000	0.000000	0.000000
65.053306	14.425249	21.533688	-1.301752	1.762323	2.255639	0.000000	0.186343	0.000000	-0.000003	-0.000000	0.000000	0.000000
65.494266	15.783235	19.783261	-1.789545	2.192152	2.352199	0.000000	0.252027	0.000000	-0.000003	-0.000000	0.000000	0.000000
65.940226	17.628875	17.671684	-2.363791	2.522997	2.479901	0.000000	0.320983	0.000000	-0.000003	-0.000001	0.000000	0.000000
66.489286	19.994627	15.309413	-1.919436	1.804790	2.635772	0.000000	0.245957	0.000000	-0.000004	-0.000000	0.000000	0.000000
67.038346	21.794636	13.661023	-1.339503	1.215134	2.749190	0.000000	0.166567	0.000000	-0.000004	-0.000000	0.000000	0.000000
67.587406	22.901756	12.609104	-0.664953	0.712030	2.818141	0.000000	0.084224	0.000000	-0.000004	-0.000000	0.000000	0.000000
68.136466	23.237786	12.078728	0.056566	0.259642	2.841403	0.000000	0.000386	0.000000	-0.000004	-0.000000	0.000000	0.000000
68.435038	23.244102	11.912844	-0.017001	0.264387	2.843735	0.000000	0.007810	0.000000	-0.000004	-0.000000	0.000000	0.000000
68.768372	23.260218	11.746565	-0.031346	0.234450	2.846339	0.000000	0.007810	0.000000	-0.000004	-0.000000	0.000000	0.000000
69.101705	23.285896	11.600244	-0.045691	0.204514	2.848942	0.000000	0.007810	0.000000	-0.000004	-0.000000	0.000000	0.000000
69.436288	23.321289	11.473444	-0.060089	0.174464	2.851556	0.000000	0.007810	0.000000	-0.000004	-0.000000	0.000000	0.000000
69.733611	23.360825	11.377639	-0.133924	0.177490	2.853878	0.000000	0.015267	0.000000	-0.000004	-0.000000	0.000000	0.000000
70.282671	23.106688	11.410520	0.594042	-0.237730	2.839074	0.000000	-0.069111	0.000000	-0.000004	0.000000	0.000000	0.000000
