#ParticleID	Turn	x[m]	xp	y[m]	yp	z[m]	dE[GeV]# s	beta_x	beta_y	alpha_x	alpha_y	D_x	D_y	D_px	D_py	orbit_x	orbit_px	orbit_y	orbit_py
0.300000	11.821346	24.987935	-0.011913	-0.027561	2.618078	0.000000	0.000025	0.000000	0.000000	0.000001	0.000000	0.000000
0.601250	11.836201	25.008175	-0.037400	-0.039626	2.618085	0.000000	0.000025	0.000000	0.000000	0.000001	0.000000	0.000000
0.898573	11.865920	25.035279	-0.033457	-0.112927	2.618093	0.000000	-0.006395	0.000000	0.000000	0.000001	0.000000	0.000000
1.339533	12.047648	24.857180	-0.380225	0.515281	2.631566	0.000000	0.067562	0.000000	0.000001	0.000001	0.000000	0.000000
1.780493	12.541674	24.133313	-0.744366	1.120043	2.677789	0.000000	0.142288	0.000000	0.000001	0.000001	0.000000	0.000000
2.221453	13.370568	22.896613	-1.142514	1.673845	2.757289	0.000000	0.218635	0.000000	0.000001	0.000001	0.000000	0.000000
2.662413	14.572200	21.203351	-1.592860	2.151488	2.870972	0.000000	0.297472	0.000000	0.000002	0.000001	0.000000	0.000000
3.108373	16.222239	19.105734	-2.120273	2.532372	3.021994	0.000000	0.380187	0.000000	0.000002	0.000001	0.000000	0.000000
3.657433	18.338116	16.749848	-1.710550	1.783717	3.205467	0.000000	0.287149	0.000000	0.000003	0.000001	0.000000	0.000000
4.206493	19.934653	15.141901	-1.180001	1.162114	3.336381	0.000000	0.189017	0.000000	0.000003	0.000001	0.000000	0.000000
4.755553	20.899079	14.167363	-0.566104	0.623284	3.412414	0.000000	0.087533	0.000000	0.000003	0.000001	0.000000	0.000000
5.304613	21.163271	13.756819	0.087781	0.128850	3.432217	0.000000	-0.015504	0.000000	0.000004	0.000000	0.000000	0.000000
5.603185	21.148089	13.665070	0.018364	0.142500	3.430265	0.000000	-0.006536	0.000000	0.000004	0.000000	0.000000	0.000000
5.936519	21.141102	13.578366	0.002596	0.117612	3.428086	0.000000	-0.006536	0.000000	0.000004	0.000000	0.000000	0.000000
6.269852	21.144627	13.508254	-0.013171	0.092723	3.425907	0.000000	-0.006536	0.000000	0.000004	0.000000	0.000000	0.000000
6.604435	21.158736	13.454565	-0.028997	0.067742	3.423720	0.000000	-0.006536	0.000000	0.000004	0.000000	0.000000	0.000000
6.901758	21.180160	13.420883	-0.098399	0.080607	3.421777	0.000000	0.002404	0.000000	0.000004	0.000000	0.000000	0.000000
7.450818	20.927209	13.593047	0.556371	-0.396018	3.394895	0.000000	-0.100180	0.000000	0.000005	0.000000	0.000000	0.000000
7.999878	19.972666	14.300926	1.171841	-0.900849	3.312093	0.000000	-0.200987	0.000000	0.000005	0.000000	0.000000	0.000000
8.548938	18.383957	15.594942	1.704538	-1.469847	3.174842	0.000000	-0.298228	0.000000	0.000005	0.000000	0.000000	0.000000
9.097998	16.273300	17.567266	2.116835	-2.143538	2.985574	0.000000	-0.390180	0.000000	0.000005	-0.000000	0.000000	0.000000
9.543958	14.626551	19.324733	1.588886	-1.780669	2.829877	0.000000	-0.308471	0.000000	0.000005	0.000000	0.000000	0.000000
9.984918	13.428727	20.705200	1.137820	-1.338012	2.711100	0.000000	-0.230759	0.000000	0.000005	0.000000	0.000000	0.000000
10.425878	12.604367	21.666839	0.738739	-0.834476	2.625980	0.000000	-0.155676	0.000000	0.000005	0.000000	0.000000	0.000000
10.866838	12.115808	22.165898	0.373408	-0.292972	2.573546	0.000000	-0.082365	0.000000	0.000005	0.000000	0.000000	0.000000
11.309048	11.940594	22.179151	0.054313	0.207414	2.553182	0.000000	-0.016253	0.000000	0.000005	0.000001	0.000000	0.000000
11.606371	11.915723	22.059970	0.029339	0.193432	2.548350	0.000000	-0.016253	0.000000	0.000005	0.000001	0.000000	0.000000
12.086371	11.906909	21.885111	-0.010978	0.170859	2.540548	0.000000	-0.016253	0.000000	0.000006	0.000001	0.000000	0.000000
12.566371	11.936801	21.731921	-0.051296	0.148286	2.532746	0.000000	-0.016253	0.000000	0.000006	0.000001	0.000000	0.000000
13.046371	12.005397	21.600402	-0.091613	0.125713	2.524944	0.000000	-0.016253	0.000000	0.000006	0.000001	0.000000	0.000000
13.526371	12.112699	21.490553	-0.131931	0.103140	2.517142	0.000000	-0.016253	0.000000	0.000006	0.000001	0.000000	0.000000
14.007621	12.259136	21.402172	-0.172354	0.080508	2.509320	0.000000	-0.016253	0.000000	0.000007	0.000001	0.000000	0.000000
14.304943	12.369050	21.358456	-0.166997	0.014152	2.504487	0.000000	-0.022395	0.000000	0.000007	0.000000	0.000000	0.000000
14.745903	12.674944	21.112192	-0.529334	0.542194	2.510245	0.000000	0.048534	0.000000	0.000007	0.000001	0.000000	0.000000
15.186863	13.309806	20.409379	-0.915856	1.045566	2.547371	0.000000	0.120015	0.000000	0.000007	0.000001	0.000000	0.000000
15.627823	14.302643	19.281994	-1.344220	1.501366	2.616288	0.000000	0.192864	0.000000	0.000008	0.000001	0.000000	0.000000
16.068783	15.698813	17.781332	-1.833998	1.888855	2.717782	0.000000	0.267909	0.000000	0.000008	0.000001	0.000000	0.000000
16.514743	17.585759	15.954168	-2.412323	2.191149	2.854704	0.000000	0.346467	0.000000	0.000009	0.000001	0.000000	0.000000
17.063803	20.009163	13.913907	-1.975281	1.546702	3.021201	0.000000	0.259124	0.000000	0.000010	0.000001	0.000000	0.000000
17.612863	21.872722	12.517039	-1.398716	1.012423	3.138408	0.000000	0.167185	0.000000	0.000010	0.000001	0.000000	0.000000
18.161923	23.044803	11.664070	-0.723352	0.550256	3.204245	0.000000	0.072281	0.000000	0.000011	0.000001	0.000000	0.000000
18.710983	23.442616	11.294243	0.003106	0.127283	3.217545	0.000000	-0.023905	0.000000	0.000011	0.000000	0.000000	0.000000
19.009556	23.481149	11.208704	-0.070919	0.129704	3.212917	0.000000	-0.015499	0.000000	0.000011	0.000000	0.000000	0.000000
19.342889	23.533184	11.132314	-0.085186	0.099465	3.207751	0.000000	-0.015499	0.000000	0.000011	0.000000	0.000000	0.000000
19.676223	23.594730	11.076083	-0.099453	0.069226	3.202584	0.000000	-0.015499	0.000000	0.000011	0.000000	0.000000	0.000000
20.010806	23.666365	11.039778	-0.231030	0.093571	3.197418	0.000000	0.000343	0.000000	0.000011	0.000000	0.000000	0.000000
20.308129	23.807681	10.992214	-0.306463	0.095122	3.197520	0.000000	0.008696	0.000000	0.000011	0.000000	0.000000	0.000000
20.857189	23.733595	11.110097	0.440595	-0.311089	3.176072	0.000000	-0.086709	0.000000	0.000011	-0.000000	0.000000	0.000000
21.406249	22.851455	11.683527	1.156532	-0.739459	3.102585	0.000000	-0.180577	0.000000	0.000011	-0.000000	0.000000	0.000000
21.955309	21.223568	12.753346	1.790777	-1.220498	2.978365	0.000000	-0.271242	0.000000	0.000011	-0.000001	0.000000	0.000000
22.504369	18.964922	14.395756	2.298530	-1.788471	2.805614	0.000000	-0.357095	0.000000	0.000010	-0.000001	0.000000	0.000000
22.950329	17.184966	15.870264	1.706850	-1.503948	2.663660	0.000000	-0.279875	0.000000	0.000010	-0.000001	0.000000	0.000000
23.391289	15.908951	17.045840	1.197847	-1.151853	2.556571	0.000000	-0.206298	0.000000	0.000009	-0.000001	0.000000	0.000000
23.832249	15.056098	17.886510	0.743571	-0.747349	2.481378	0.000000	-0.135070	0.000000	0.000009	-0.000000	0.000000	0.000000
24.273209	14.587444	18.354027	0.323266	-0.308841	2.437225	0.000000	-0.065380	0.000000	0.000009	-0.000000	0.000000	0.000000
24.715418	14.481693	18.426871	-0.046846	0.098465	2.423606	0.000000	-0.002378	0.000000	0.000009	0.000000	0.000000	0.000000
25.012741	14.515668	18.373163	-0.067422	0.082174	2.422899	0.000000	-0.002378	0.000000	0.000009	0.000000	0.000000	0.000000
25.346075	14.568305	18.324469	-0.090490	0.063909	2.422106	0.000000	-0.002378	0.000000	0.000009	0.000000	0.000000	0.000000
25.679408	14.636322	18.287952	-0.113559	0.045644	2.421313	0.000000	-0.002378	0.000000	0.000009	0.000000	0.000000	0.000000
26.013991	14.719760	18.263913	-0.017297	-0.120855	2.420493	0.000000	-0.022015	0.000000	0.000009	-0.000000	0.000000	0.000000
26.311314	14.736053	18.340690	-0.001368	-0.182345	2.413947	0.000000	-0.027934	0.000000	0.000009	-0.000000	0.000000	0.000000
26.752274	14.918826	18.302573	-0.414693	0.268457	2.416742	0.000000	0.040622	0.000000	0.000009	0.000000	0.000000	0.000000
27.193234	15.473064	17.870772	-0.846965	0.707046	2.449841	0.000000	0.109641	0.000000	0.000009	0.000000	0.000000	0.000000
27.634194	16.424089	17.064933	-1.317932	1.113464	2.513620	0.000000	0.179909	0.000000	0.000010	0.000001	0.000000	0.000000
28.075154	17.815350	15.921723	-1.849111	1.469220	2.608806	0.000000	0.252226	0.000000	0.000010	0.000001	0.000000	0.000000
28.521114	19.734584	14.475936	-2.469733	1.759041	2.738087	0.000000	0.327859	0.000000	0.000011	0.000001	0.000000	0.000000
29.070174	22.173944	12.864977	-1.946760	1.192309	2.895432	0.000000	0.244443	0.000000	0.000011	0.000001	0.000000	0.000000
29.619234	23.959647	11.826350	-1.286277	0.710502	3.005718	0.000000	0.156691	0.000000	0.000011	0.000001	0.000000	0.000000
30.168294	24.965557	11.286077	-0.534937	0.279302	3.066987	0.000000	0.066160	0.000000	0.000012	0.000000	0.000000	0.000000
30.717354	25.120624	11.205675	0.254187	-0.132003	3.078154	0.000000	-0.025544	0.000000	0.000012	-0.000000	0.000000	0.000000
31.015927	25.011703	11.275058	0.176250	-0.129653	3.072928	0.000000	-0.017503	0.000000	0.000012	-0.000000	0.000000	0.000000
31.349260	24.898783	11.371514	0.162509	-0.159714	3.067094	0.000000	-0.017503	0.000000	0.000011	-0.000000	0.000000	0.000000
31.682593	24.795024	11.488010	0.148768	-0.189775	3.061260	0.000000	-0.017503	0.000000	0.000011	-0.000000	0.000000	0.000000
32.017177	24.700089	11.625096	0.134975	-0.219948	3.055404	0.000000	-0.017503	0.000000	0.000011	-0.000000	0.000000	0.000000
32.314499	24.623471	11.763860	0.058388	-0.216028	3.050200	0.000000	-0.009534	0.000000	0.000011	-0.000000	0.000000	0.000000
32.863559	24.137503	12.240350	0.821463	-0.656925	3.020079	0.000000	-0.100025	0.000000	0.000011	-0.000001	0.000000	0.000000
33.412619	22.840646	13.223699	1.526513	-1.144613	2.940687	0.000000	-0.188743	0.000000	0.000011	-0.000001	0.000000	0.000000
33.961679	20.824503	14.783946	2.123739	-1.713830	2.813432	0.000000	-0.274113	0.000000	0.000010	-0.000001	0.000000	0.000000
34.510739	18.231484	17.032226	2.570954	-2.405120	2.640572	0.000000	-0.354621	0.000000	0.000009	-0.000002	0.000000	0.000000
34.956699	16.215360	19.043201	1.966107	-2.085367	2.498770	0.000000	-0.281680	0.000000	0.000009	-0.000001	0.000000	0.000000
35.397659	14.712009	20.706148	1.456095	-1.671479	2.389945	0.000000	-0.212376	0.000000	0.000008	-0.000001	0.000000	0.000000
35.838619	13.627524	21.969021	1.012607	-1.181539	2.311118	0.000000	-0.145490	0.000000	0.000008	-0.000001	0.000000	0.000000
36.279579	12.912358	22.774359	0.615383	-0.637841	2.261392	0.000000	-0.080262	0.000000	0.000007	-0.000001	0.000000	0.000000
36.721789	12.533145	23.085826	0.276901	-0.121785	2.240174	0.000000	-0.021440	0.000000	0.000007	-0.000001	0.000000	0.000000
37.019112	12.376081	23.162131	0.251360	-0.134855	2.233799	0.000000	-0.021440	0.000000	0.000007	-0.000001	0.000000	0.000000
37.352445	12.218053	23.256918	0.222724	-0.149508	2.226653	0.000000	-0.021440	0.000000	0.000007	-0.000001	0.000000	0.000000
37.685779	12.079116	23.361475	0.194089	-0.164161	2.219506	0.000000	-0.021440	0.000000	0.000007	-0.000001	0.000000	0.000000
38.020362	11.958855	23.476247	0.165346	-0.178869	2.212333	0.000000	-0.021440	0.000000	0.000006	-0.000001	0.000000	0.000000
38.317684	11.868127	23.586496	0.168907	-0.249777	2.205958	0.000000	-0.026850	0.000000	0.000006	-0.000001	0.000000	0.000000
38.758644	11.870503	23.545539	-0.174316	0.342306	2.208048	0.000000	0.036336	0.000000	0.000006	-0.000000	0.000000	0.000000
39.199604	12.177929	22.987311	-0.525503	0.918814	2.238064	0.000000	0.099935	0.000000	0.000006	-0.000000	0.000000	0.000000
39.640564	12.804449	21.937212	-0.900698	1.453517	2.296349	0.000000	0.164672	0.000000	0.000006	-0.000000	0.000000	0.000000
40.081524	13.778689	20.443020	-1.317044	1.922086	2.383567	0.000000	0.231285	0.000000	0.000006	0.000000	0.000000	0.000000
40.527484	15.162728	18.550152	-1.797387	2.304482	2.502183	0.000000	0.300938	0.000000	0.000006	0.000000	0.000000	0.000000
41.076544	16.929027	16.423089	-1.400520	1.592393	2.646883	0.000000	0.225370	0.000000	0.000006	0.000000	0.000000	0.000000
41.625604	18.202283	15.011487	-0.904727	0.993726	2.748932	0.000000	0.145805	0.000000	0.000006	-0.000000	0.000000	0.000000
42.174664	18.892560	14.214801	-0.345029	0.465840	2.806519	0.000000	0.063654	0.000000	0.000006	-0.000000	0.000000	0.000000
42.723724	18.951100	13.976284	0.239040	-0.028866	2.818624	0.000000	-0.019627	0.000000	0.000005	-0.000001	0.000000	0.000000
43.022297	18.842798	13.978094	0.173206	-0.013714	2.814963	0.000000	-0.012262	0.000000	0.000005	-0.000001	0.000000	0.000000
43.502297	18.689115	14.007745	0.146968	-0.048060	2.809078	0.000000	-0.012262	0.000000	0.000005	-0.000001	0.000000	0.000000
43.982297	18.560620	14.070368	0.120730	-0.082406	2.803192	0.000000	-0.012262	0.000000	0.000005	-0.000001	0.000000	0.000000
44.462297	18.457313	14.165964	0.094492	-0.116751	2.797306	0.000000	-0.012262	0.000000	0.000005	-0.000001	0.000000	0.000000
44.942297	18.379196	14.294531	0.068253	-0.151097	2.791421	0.000000	-0.012262	0.000000	0.000004	-0.000001	0.000000	0.000000
45.423547	18.326389	14.456355	-0.048852	-0.113907	2.785537	0.000000	0.001539	0.000000	0.000004	-0.000001	0.000000	0.000000
45.720870	18.360274	14.530284	-0.113085	-0.096777	2.785994	0.000000	0.008818	0.000000	0.000004	-0.000000	0.000000	0.000000
46.269930	18.175300	14.917620	0.447983	-0.612840	2.768263	0.000000	-0.073314	0.000000	0.000004	-0.000001	0.000000	0.000000
46.818990	17.388014	15.892155	0.977408	-1.172553	2.705726	0.000000	-0.154145	0.000000	0.000003	-0.000001	0.000000	0.000000
47.368050	16.054027	17.523304	1.437793	-1.815786	2.599495	0.000000	-0.232243	0.000000	0.000003	-0.000001	0.000000	0.000000
47.917110	14.267565	19.927250	1.796620	-2.588352	2.451453	0.000000	-0.306221	0.000000	0.000002	-0.000001	0.000000	0.000000
48.363070	12.877295	22.064613	1.331901	-2.184221	2.330184	0.000000	-0.237919	0.000000	0.000002	-0.000001	0.000000	0.000000
48.804030	11.882866	23.775965	0.931801	-1.681981	2.239732	0.000000	-0.172724	0.000000	0.000002	-0.000001	0.000000	0.000000
49.244990	11.221258	25.008816	0.574272	-1.103213	2.177568	0.000000	-0.109496	0.000000	0.000001	-0.000001	0.000000	0.000000
49.685950	10.862244	25.707070	0.242980	-0.474249	2.142983	0.000000	-0.047515	0.000000	0.000001	-0.000001	0.000000	0.000000
50.128160	10.789550	25.838676	-0.050868	0.112880	2.135595	0.000000	0.008687	0.000000	0.000001	-0.000001	0.000000	0.000000
50.425482	10.828013	25.775017	-0.078496	0.101227	2.138179	0.000000	0.008687	0.000000	0.000000	-0.000001	0.000000	0.000000
50.758816	10.890668	25.711888	-0.109470	0.088162	2.141075	0.000000	0.008687	0.000000	0.000000	-0.000001	0.000000	0.000000
51.092149	10.973973	25.657468	-0.140444	0.075097	2.143971	0.000000	0.008687	0.000000	-0.000000	-0.000001	0.000000	0.000000
51.426732	11.078131	25.612123	-0.081661	-0.145795	2.146856	0.000000	-0.008729	0.000000	-0.000000	-0.000001	0.000000	0.000000
51.724055	11.134724	25.702345	-0.081373	-0.220681	2.144261	0.000000	-0.013988	0.000000	-0.000001	-0.000001	0.000000	0.000000
52.165015	11.351857	25.611033	-0.412906	0.426967	2.151681	0.000000	0.047676	0.000000	-0.000001	-0.000001	0.000000	0.000000
52.605975	11.868559	24.954965	-0.763304	1.055189	2.186387	0.000000	0.109882	0.000000	-0.000001	-0.000001	0.000000	0.000000
53.046935	12.708434	23.763991	-1.148575	1.635400	2.248773	0.000000	0.173340	0.000000	-0.000002	-0.000001	0.000000	0.000000
53.487895	13.909856	22.092300	-1.586321	2.141202	2.339550	0.000000	0.238773	0.000000	-0.000002	-0.000001	0.000000	0.000000
53.933855	15.548306	19.990955	-2.100774	2.550917	2.461256	0.000000	0.307323	0.000000	-0.000002	-0.000001	0.000000	0.000000
54.482915	17.657737	17.626447	-1.718380	1.780969	2.609815	0.000000	0.233019	0.000000	-0.000003	-0.000001	0.000000	0.000000
55.031975	19.277713	16.033230	-1.214609	1.137877	2.716380	0.000000	0.154582	0.000000	-0.000003	-0.000001	0.000000	0.000000
55.581035	20.293807	15.097822	-0.625044	0.575832	2.779062	0.000000	0.073403	0.000000	-0.000004	-0.000001	0.000000	0.000000
56.130095	20.634248	14.753597	0.008671	0.054803	2.796747	0.000000	-0.009078	0.000000	-0.000004	-0.000000	0.000000	0.000000
56.428668	20.665595	14.703947	-0.059744	0.072939	2.796219	0.000000	-0.001770	0.000000	-0.000004	-0.000001	0.000000	0.000000
56.762001	20.710819	14.662917	-0.075931	0.050149	2.795629	0.000000	-0.001770	0.000000	-0.000004	-0.000001	0.000000	0.000000
57.095334	20.766836	14.637081	-0.092118	0.027359	2.795039	0.000000	-0.001770	0.000000	-0.000004	-0.000001	0.000000	0.000000
57.429918	20.833915	14.626428	-0.108367	0.004483	2.794447	0.000000	-0.001770	0.000000	-0.000005	-0.000001	0.000000	0.000000
57.727240	20.902647	14.629806	-0.177422	0.022381	2.793921	0.000000	0.005530	0.000000	-0.000005	-0.000001	0.000000	0.000000
58.276300	20.740851	14.886188	0.470356	-0.492085	2.774319	0.000000	-0.076828	0.000000	-0.000005	-0.000000	0.000000	0.000000
58.825360	19.881831	15.723332	1.084911	-1.041601	2.709805	0.000000	-0.157824	0.000000	-0.000005	-0.000000	0.000000	0.000000
59.374420	18.386264	17.200866	1.622833	-1.665309	2.601523	0.000000	-0.236020	0.000000	-0.000005	-0.000000	0.000000	0.000000
59.923480	16.359789	19.424032	2.046127	-2.407632	2.451395	0.000000	-0.310030	0.000000	-0.000005	0.000000	0.000000	0.000000
60.369440	14.773648	21.400032	1.523157	-2.004556	2.328423	0.000000	-0.241752	0.000000	-0.000005	0.000000	0.000000	0.000000
60.810400	13.632741	22.956459	1.073984	-1.511646	2.236267	0.000000	-0.176624	0.000000	-0.000005	-0.000000	0.000000	0.000000
61.251360	12.864917	24.046074	0.673877	-0.949958	2.172360	0.000000	-0.113508	0.000000	-0.000005	-0.000000	0.000000	0.000000
61.692320	12.435097	24.619301	0.304559	-0.345047	2.135973	0.000000	-0.051685	0.000000	-0.000005	-0.000000	0.000000	0.000000
62.134530	12.323694	24.649520	-0.020724	0.215057	2.126697	0.000000	0.004334	0.000000	-0.000006	-0.000001	0.000000	0.000000
62.431853	12.343194	24.525390	-0.044861	0.202438	2.127986	0.000000	0.004334	0.000000	-0.000006	-0.000001	0.000000	0.000000
62.765186	12.382121	24.395147	-0.071921	0.188289	2.129431	0.000000	0.004334	0.000000	-0.000006	-0.000001	0.000000	0.000000
63.098520	12.439088	24.274337	-0.098980	0.174141	2.130876	0.000000	0.004334	0.000000	-0.000006	-0.000001	0.000000	0.000000
63.433103	12.514411	24.162560	-0.126142	0.159939	2.132326	0.000000	0.004334	0.000000	-0.000006	-0.000001	0.000000	0.000000
63.730426	12.596596	24.071205	-0.119386	0.088286	2.133615	0.000000	-0.000898	0.000000	-0.000006	-0.000001	0.000000	0.000000
64.171386	12.862276	23.728240	-0.485404	0.686523	2.146758	0.000000	0.060564	0.000000	-0.000007	-0.000001	0.000000	0.000000
64.612346	13.459277	22.869489	-0.873599	1.253524	2.187130	0.000000	0.122717	0.000000	-0.000007	-0.000001	0.000000	0.000000
65.053306	14.414874	21.534025	-1.301706	1.763490	2.255190	0.000000	0.186267	0.000000	-0.000007	-0.000001	0.000000	0.000000
65.494266	15.772726	19.782609	-1.789284	2.193219	2.351715	0.000000	0.251939	0.000000	-0.000008	-0.000001	0.000000	0.000000
65.940226	17.618032	17.670144	-2.363302	2.523914	2.479374	0.000000	0.320882	0.000000	-0.000009	-0.000001	0.000000	0.000000
66.489286	19.983475	15.306918	-1.919365	1.805624	2.635196	0.000000	0.245874	0.000000	-0.000009	-0.000001	0.000000	0.000000
67.038346	21.783638	13.657631	-1.339854	1.215945	2.748573	0.000000	0.166504	0.000000	-0.000010	-0.000001	0.000000	0.000000
67.587406	22.891366	12.604807	-0.665703	0.712875	2.817495	0.000000	0.084181	0.000000	-0.000010	-0.000001	0.000000	0.000000
68.136466	23.228414	12.073458	0.055471	0.260581	2.840740	0.000000	0.000364	0.000000	-0.000010	-0.000000	0.000000	0.000000
68.435038	23.235373	11.907028	-0.018080	0.265290	2.843065	0.000000	0.007787	0.000000	-0.000010	-0.000000	0.000000	0.000000
68.768372	23.252210	11.740156	-0.032431	0.235325	2.845661	0.000000	0.007787	0.000000	-0.000011	-0.000000	0.000000	0.000000
69.101705	23.278614	11.593261	-0.046781	0.205360	2.848257	0.000000	0.007787	0.000000	-0.000011	-0.000000	0.000000	0.000000
69.436288	23.314737	11.465904	-0.061186	0.175283	2.850862	0.000000	0.007787	0.000000	-0.000011	-0.000000	0.000000	0.000000
69.733611	23.354927	11.369620	-0.135014	0.178264	2.853178	0.000000	0.015243	0.000000	-0.000011	-0.000000	0.000000	0.000000
70.282671	23.102084	11.401525	0.592789	-0.236716	2.838367	0.000000	-0.069113	0.000000	-0.000011	0.000000	0.000000	0.000000
