#ParticleID	Turn	x[m]	xp	y[m]	yp	z[m]	dE[GeV]# s	beta_x	beta_y	alpha_x	alpha_y	D_x	D_y	D_px	D_py	orbit_x	orbit_px	orbit_y	orbit_py
0.300000	11.812826	25.023008	-0.010895	-0.027244	2.618055	0.000000	0.000034	0.000000	-0.000000	0.000001	0.000000	0.000000
0.601250	11.827074	25.043051	-0.036400	-0.039292	2.618065	0.000000	0.000034	0.000000	0.000000	0.000001	0.000000	0.000000
0.898573	11.856203	25.069951	-0.032498	-0.112661	2.618075	0.000000	-0.006386	0.000000	0.000001	0.000001	0.000000	0.000000
1.339533	12.036981	24.891213	-0.379020	0.516457	2.631551	0.000000	0.067570	0.000000	0.000001	0.000001	0.000000	0.000000
1.780493	12.529815	24.165925	-0.742859	1.122077	2.677778	0.000000	0.142296	0.000000	0.000002	0.000001	0.000000	0.000000
2.221453	13.357223	22.927087	-1.140637	1.676643	2.757282	0.000000	0.218643	0.000000	0.000002	0.000001	0.000000	0.000000
2.662413	14.557007	21.231065	-1.590528	2.154923	2.870968	0.000000	0.297480	0.000000	0.000003	0.000001	0.000000	0.000000
3.108373	16.204722	19.130155	-2.117374	2.536289	3.021992	0.000000	0.380194	0.000000	0.000004	0.000001	0.000000	0.000000
3.657433	18.317645	16.770516	-1.708100	1.786676	3.205469	0.000000	0.287156	0.000000	0.000004	0.000001	0.000000	0.000000
4.206493	19.911821	15.159748	-1.178175	1.164324	3.336387	0.000000	0.189024	0.000000	0.000005	0.000001	0.000000	0.000000
4.755553	20.874644	14.183119	-0.565029	0.624905	3.412424	0.000000	0.087540	0.000000	0.000006	0.000001	0.000000	0.000000
5.304613	21.138107	13.771066	0.088028	0.129995	3.432230	0.000000	-0.015497	0.000000	0.000006	0.000001	0.000000	0.000000
5.603185	21.122742	13.678606	0.018661	0.143696	3.430280	0.000000	-0.006530	0.000000	0.000006	0.000001	0.000000	0.000000
5.936519	21.115563	13.591100	0.002874	0.118824	3.428104	0.000000	-0.006530	0.000000	0.000007	0.000001	0.000000	0.000000
6.269852	21.118909	13.520174	-0.012912	0.093952	3.425927	0.000000	-0.006530	0.000000	0.000007	0.000001	0.000000	0.000000
6.604435	21.132851	13.465658	-0.028757	0.068987	3.423742	0.000000	-0.006530	0.000000	0.000007	0.000001	0.000000	0.000000
6.901758	21.154138	13.431231	-0.098107	0.081893	3.421800	0.000000	0.002410	0.000000	0.000008	0.000001	0.000000	0.000000
7.450818	20.901346	13.602137	0.555790	-0.395000	3.394921	0.000000	-0.100174	0.000000	0.000008	0.000001	0.000000	0.000000
7.999878	19.947905	14.309013	1.170429	-0.900028	3.312122	0.000000	-0.200982	0.000000	0.000008	0.000000	0.000000	0.000000
8.548938	18.361160	15.602208	1.702394	-1.469163	3.174873	0.000000	-0.298225	0.000000	0.000008	0.000000	0.000000	0.000000
9.097998	16.253191	17.573833	2.114111	-2.142943	2.985607	0.000000	-0.390178	0.000000	0.000008	-0.000000	0.000000	0.000000
9.543958	14.608600	19.330645	1.586755	-1.779800	2.829911	0.000000	-0.308468	0.000000	0.000008	0.000000	0.000000	0.000000
9.984918	13.412431	20.710240	1.136182	-1.336912	2.711136	0.000000	-0.230755	0.000000	0.000008	0.000000	0.000000	0.000000
10.425878	12.589326	21.670826	0.737518	-0.833195	2.626018	0.000000	-0.155670	0.000000	0.000009	0.000000	0.000000	0.000000
10.866838	12.101681	22.168697	0.372549	-0.291569	2.573587	0.000000	-0.082359	0.000000	0.000009	0.000001	0.000000	0.000000
11.309048	11.927081	22.180678	0.053742	0.208874	2.553226	0.000000	-0.016246	0.000000	0.000009	0.000001	0.000000	0.000000
11.606371	11.902557	22.060631	0.028742	0.194885	2.548395	0.000000	-0.016246	0.000000	0.000009	0.000001	0.000000	0.000000
12.086371	11.894338	21.884382	-0.011619	0.172300	2.540597	0.000000	-0.016246	0.000000	0.000010	0.000001	0.000000	0.000000
12.566371	11.924866	21.729814	-0.051980	0.149716	2.532798	0.000000	-0.016246	0.000000	0.000010	0.000001	0.000000	0.000000
13.046371	11.994139	21.596928	-0.092341	0.127131	2.525000	0.000000	-0.016246	0.000000	0.000011	0.000001	0.000000	0.000000
13.526371	12.102159	21.485722	-0.132701	0.104547	2.517202	0.000000	-0.016246	0.000000	0.000011	0.000001	0.000000	0.000000
14.007621	12.249359	21.395993	-0.173167	0.081903	2.509383	0.000000	-0.016246	0.000000	0.000012	0.000001	0.000000	0.000000
14.304943	12.359765	21.351449	-0.167861	0.015560	2.504552	0.000000	-0.022387	0.000000	0.000012	0.000001	0.000000	0.000000
14.745903	12.666338	21.104037	-0.530015	0.543382	2.510313	0.000000	0.048543	0.000000	0.000012	0.000001	0.000000	0.000000
15.186863	13.301732	20.400293	-0.916384	1.046480	2.547444	0.000000	0.120027	0.000000	0.000013	0.000002	0.000000	0.000000
15.627823	14.294977	19.272238	-1.344620	1.501965	2.616366	0.000000	0.192877	0.000000	0.000014	0.000002	0.000000	0.000000
16.068783	15.691451	17.771197	-1.834288	1.889111	2.717866	0.000000	0.267924	0.000000	0.000015	0.000002	0.000000	0.000000
16.514743	17.578613	15.943963	-2.412517	2.191049	2.854795	0.000000	0.346485	0.000000	0.000016	0.000003	0.000000	0.000000
17.063803	20.002418	13.903693	-1.975812	1.546817	3.021300	0.000000	0.259139	0.000000	0.000017	0.000002	0.000000	0.000000
17.612863	21.866728	12.506578	-1.399544	1.012761	3.138514	0.000000	0.167197	0.000000	0.000018	0.000002	0.000000	0.000000
18.161923	23.039857	11.653103	-0.724420	0.550842	3.204356	0.000000	0.072289	0.000000	0.000019	0.000001	0.000000	0.000000
18.710983	23.438941	11.282479	0.001874	0.128159	3.217659	0.000000	-0.023901	0.000000	0.000019	0.000000	0.000000	0.000000
19.009556	23.478204	11.196447	-0.072142	0.130512	3.213033	0.000000	-0.015496	0.000000	0.000019	0.000000	0.000000	0.000000
19.342889	23.531055	11.119531	-0.086413	0.100234	3.207867	0.000000	-0.015496	0.000000	0.000019	0.000000	0.000000	0.000000
19.676223	23.593421	11.062802	-0.100685	0.069955	3.202702	0.000000	-0.015496	0.000000	0.000019	0.000000	0.000000	0.000000
20.010806	23.665882	11.026022	-0.232263	0.094193	3.197537	0.000000	0.000347	0.000000	0.000019	0.000000	0.000000	0.000000
20.308129	23.807933	10.978100	-0.307700	0.095667	3.197640	0.000000	0.008700	0.000000	0.000020	0.000001	0.000000	0.000000
20.857189	23.735195	11.095164	0.439393	-0.310135	3.176193	0.000000	-0.086709	0.000000	0.000020	-0.000000	0.000000	0.000000
21.406249	22.854316	11.667292	1.155449	-0.738027	3.102706	0.000000	-0.180581	0.000000	0.000019	-0.000001	0.000000	0.000000
21.955309	21.227517	12.735232	1.789891	-1.218488	2.978482	0.000000	-0.271249	0.000000	0.000019	-0.000001	0.000000	0.000000
22.504369	18.969706	14.375054	2.297903	-1.785739	2.805726	0.000000	-0.357106	0.000000	0.000018	-0.000002	0.000000	0.000000
22.950329	17.190322	15.847331	1.706188	-1.501699	2.663768	0.000000	-0.279884	0.000000	0.000017	-0.000002	0.000000	0.000000
23.391289	15.914917	17.021174	1.197121	-1.150188	2.556676	0.000000	-0.206303	0.000000	0.000017	-0.000001	0.000000	0.000000
23.832249	15.062746	17.860663	0.742747	-0.746343	2.481481	0.000000	-0.135073	0.000000	0.000016	-0.000001	0.000000	0.000000
24.273209	14.594875	18.327602	0.322306	-0.308541	2.437328	0.000000	-0.065381	0.000000	0.000016	-0.000000	0.000000	0.000000
24.715418	14.490048	18.400500	-0.047967	0.098114	2.423709	0.000000	-0.002376	0.000000	0.000016	0.000000	0.000000	0.000000
25.012741	14.524686	18.347008	-0.068533	0.081800	2.423003	0.000000	-0.002376	0.000000	0.000016	0.000000	0.000000	0.000000
25.346075	14.578060	18.298571	-0.091590	0.063510	2.422211	0.000000	-0.002376	0.000000	0.000016	0.000000	0.000000	0.000000
25.679408	14.646806	18.262328	-0.114648	0.045220	2.421419	0.000000	-0.002376	0.000000	0.000016	0.000000	0.000000	0.000000
26.013991	14.730969	18.238581	-0.018284	-0.121099	2.420599	0.000000	-0.022013	0.000000	0.000016	0.000000	0.000000	0.000000
26.311314	14.747845	18.315510	-0.002314	-0.182548	2.414054	0.000000	-0.027932	0.000000	0.000016	-0.000000	0.000000	0.000000
26.752274	14.931583	18.277872	-0.415943	0.267577	2.416850	0.000000	0.040627	0.000000	0.000016	0.000000	0.000000	0.000000
27.193234	15.487078	17.847133	-0.848576	0.705527	2.449951	0.000000	0.109649	0.000000	0.000016	0.000001	0.000000	0.000000
27.634194	16.439710	17.042891	-1.319978	1.111376	2.513734	0.000000	0.179919	0.000000	0.000017	0.000001	0.000000	0.000000
28.075154	17.833002	15.901738	-1.851686	1.466659	2.608925	0.000000	0.252239	0.000000	0.000018	0.000002	0.000000	0.000000
28.521114	19.754815	14.458405	-2.472961	1.756121	2.738212	0.000000	0.327875	0.000000	0.000018	0.000002	0.000000	0.000000
29.070174	22.197452	12.850267	-1.949464	1.190061	2.895565	0.000000	0.244455	0.000000	0.000019	0.000002	0.000000	0.000000
29.619234	23.985748	11.813815	-1.288267	0.708765	3.005856	0.000000	0.156699	0.000000	0.000020	0.000001	0.000000	0.000000
30.168294	24.993386	11.275226	-0.536074	0.277954	3.067128	0.000000	0.066163	0.000000	0.000020	0.000000	0.000000	0.000000
30.717354	25.149192	11.196137	0.253986	-0.133060	3.078295	0.000000	-0.025546	0.000000	0.000020	-0.000000	0.000000	0.000000
31.015927	25.040427	11.266175	0.175994	-0.130766	3.073069	0.000000	-0.017504	0.000000	0.000020	-0.000000	0.000000	0.000000
31.349260	24.927673	11.363384	0.162270	-0.160859	3.067235	0.000000	-0.017504	0.000000	0.000020	-0.000000	0.000000	0.000000
31.682593	24.824068	11.480654	0.148546	-0.190952	3.061400	0.000000	-0.017504	0.000000	0.000020	-0.000000	0.000000	0.000000
32.017177	24.729275	11.618539	0.134770	-0.221158	3.055544	0.000000	-0.017504	0.000000	0.000020	-0.000000	0.000000	0.000000
32.314499	24.652775	11.758030	0.058126	-0.217283	3.050340	0.000000	-0.009535	0.000000	0.000020	-0.000000	0.000000	0.000000
32.863559	24.166559	12.235840	0.822174	-0.658085	3.020216	0.000000	-0.100032	0.000000	0.000019	-0.000001	0.000000	0.000000
33.412619	22.868405	13.220448	1.528148	-1.145762	2.940820	0.000000	-0.188754	0.000000	0.000019	-0.000002	0.000000	0.000000
33.961679	20.850010	14.781987	2.126181	-1.715048	2.813558	0.000000	-0.274128	0.000000	0.000018	-0.000002	0.000000	0.000000
34.510739	18.253943	17.031682	2.574031	-2.406493	2.640690	0.000000	-0.354639	0.000000	0.000016	-0.000003	0.000000	0.000000
34.956699	16.235384	19.043957	1.968508	-2.086900	2.498881	0.000000	-0.281696	0.000000	0.000015	-0.000002	0.000000	0.000000
35.397659	14.730169	20.708300	1.457936	-1.673099	2.390049	0.000000	-0.212389	0.000000	0.000014	-0.000002	0.000000	0.000000
35.838619	13.644275	21.972614	1.013973	-1.183174	2.311218	0.000000	-0.145500	0.000000	0.000014	-0.000002	0.000000	0.000000
36.279579	12.928090	22.779373	0.616335	-0.639415	2.261488	0.000000	-0.080269	0.000000	0.000013	-0.000001	0.000000	0.000000
36.721789	12.548202	23.092178	0.277519	-0.123239	2.240267	0.000000	-0.021446	0.000000	0.000012	-0.000001	0.000000	0.000000
37.019112	12.390764	23.169349	0.252000	-0.136310	2.233891	0.000000	-0.021446	0.000000	0.000012	-0.000001	0.000000	0.000000
37.352445	12.232301	23.265107	0.223390	-0.150965	2.226742	0.000000	-0.021446	0.000000	0.000012	-0.000001	0.000000	0.000000
37.685779	12.092911	23.370635	0.194780	-0.165619	2.219594	0.000000	-0.021446	0.000000	0.000012	-0.000001	0.000000	0.000000
38.020362	11.972179	23.486383	0.166062	-0.180328	2.212419	0.000000	-0.021446	0.000000	0.000011	-0.000001	0.000000	0.000000
38.317684	11.881019	23.597500	0.169676	-0.251261	2.206043	0.000000	-0.026855	0.000000	0.000011	-0.000001	0.000000	0.000000
38.758644	11.882845	23.557719	-0.173833	0.341133	2.208131	0.000000	0.036332	0.000000	0.000011	-0.000001	0.000000	0.000000
39.199604	12.189962	23.000367	-0.525283	0.918007	2.238146	0.000000	0.099934	0.000000	0.000010	-0.000000	0.000000	0.000000
39.640564	12.816400	21.950805	-0.900732	1.453112	2.296432	0.000000	0.164673	0.000000	0.000010	-0.000000	0.000000	0.000000
40.081524	13.790781	20.456785	-1.317332	1.922101	2.383650	0.000000	0.231288	0.000000	0.000010	0.000000	0.000000	0.000000
40.527484	15.175198	18.563714	-1.797945	2.304920	2.502268	0.000000	0.300943	0.000000	0.000010	0.000000	0.000000	0.000000
41.076544	16.941853	16.436363	-1.400607	1.592482	2.646970	0.000000	0.225373	0.000000	0.000010	0.000000	0.000000	0.000000
41.625604	18.214943	15.024851	-0.904337	0.993472	2.749020	0.000000	0.145805	0.000000	0.000010	-0.000000	0.000000	0.000000
42.174664	18.904541	14.228639	-0.344189	0.465225	2.806606	0.000000	0.063651	0.000000	0.000010	-0.000001	0.000000	0.000000
42.723724	18.961938	13.991014	0.240270	-0.029885	2.818709	0.000000	-0.019632	0.000000	0.000010	-0.000001	0.000000	0.000000
43.022297	18.852917	13.993404	0.174412	-0.014673	2.815046	0.000000	-0.012268	0.000000	0.000009	-0.000001	0.000000	0.000000
43.502297	18.698074	14.023959	0.148177	-0.048983	2.809158	0.000000	-0.012268	0.000000	0.000009	-0.000001	0.000000	0.000000
43.982297	18.568417	14.087451	0.121942	-0.083292	2.803270	0.000000	-0.012268	0.000000	0.000009	-0.000001	0.000000	0.000000
44.462297	18.463946	14.183880	0.095707	-0.117601	2.797381	0.000000	-0.012268	0.000000	0.000008	-0.000001	0.000000	0.000000
44.942297	18.384659	14.313245	0.069473	-0.151910	2.791493	0.000000	-0.012268	0.000000	0.000008	-0.000001	0.000000	0.000000
45.423547	18.330677	14.475834	-0.047651	-0.114587	2.785607	0.000000	0.001533	0.000000	0.000007	-0.000001	0.000000	0.000000
45.720870	18.363846	14.550160	-0.111886	-0.097381	2.786063	0.000000	0.008812	0.000000	0.000007	-0.000001	0.000000	0.000000
46.269930	18.177500	14.938494	0.449268	-0.614066	2.768327	0.000000	-0.073322	0.000000	0.000006	-0.000001	0.000000	0.000000
46.818990	17.388798	15.914755	0.978687	-1.174488	2.705787	0.000000	-0.154155	0.000000	0.000006	-0.000001	0.000000	0.000000
47.368050	16.053450	17.548479	1.438977	-1.818567	2.599550	0.000000	-0.232254	0.000000	0.000005	-0.000001	0.000000	0.000000
47.917110	14.265778	19.956032	1.797625	-2.592179	2.451501	0.000000	-0.306234	0.000000	0.000004	-0.000002	0.000000	0.000000
48.363070	12.874642	22.096535	1.332845	-2.187408	2.330227	0.000000	-0.237931	0.000000	0.000004	-0.000002	0.000000	0.000000
48.804030	11.879390	23.810363	0.932729	-1.684386	2.239770	0.000000	-0.172735	0.000000	0.000003	-0.000001	0.000000	0.000000
49.244990	11.216955	25.044948	0.575227	-1.104726	2.177601	0.000000	-0.109506	0.000000	0.000002	-0.000001	0.000000	0.000000
49.685950	10.857071	25.744117	0.244005	-0.474801	2.143013	0.000000	-0.047525	0.000000	0.000002	-0.000001	0.000000	0.000000
50.128160	10.783422	25.875775	-0.049742	0.113223	2.135621	0.000000	0.008679	0.000000	0.000001	-0.000001	0.000000	0.000000
50.425482	10.821219	25.811907	-0.077382	0.101585	2.138202	0.000000	0.008679	0.000000	0.000001	-0.000001	0.000000	0.000000
50.758816	10.883137	25.748533	-0.108370	0.088538	2.141095	0.000000	0.008679	0.000000	0.000000	-0.000001	0.000000	0.000000
51.092149	10.965713	25.693856	-0.139358	0.075491	2.143988	0.000000	0.008679	0.000000	-0.000000	-0.000001	0.000000	0.000000
51.426732	11.069149	25.648242	-0.080663	-0.145676	2.146871	0.000000	-0.008738	0.000000	-0.000001	-0.000001	0.000000	0.000000
51.724055	11.125153	25.738388	-0.080415	-0.220634	2.144273	0.000000	-0.013997	0.000000	-0.000001	-0.000001	0.000000	0.000000
52.165015	11.341339	25.646614	-0.411706	0.427965	2.151690	0.000000	0.047667	0.000000	-0.000001	-0.000001	0.000000	0.000000
52.605975	11.856855	24.989262	-0.761807	1.057092	2.186392	0.000000	0.109874	0.000000	-0.000002	-0.000001	0.000000	0.000000
53.046935	12.695254	23.796241	-1.146712	1.638121	2.248775	0.000000	0.173332	0.000000	-0.000003	-0.000001	0.000000	0.000000
53.487895	13.894841	22.121833	-1.584007	2.144618	2.339548	0.000000	0.238764	0.000000	-0.000003	-0.000001	0.000000	0.000000
53.933855	15.530985	20.017187	-2.097899	2.554874	2.461251	0.000000	0.307315	0.000000	-0.000004	-0.000002	0.000000	0.000000
54.482915	17.637486	17.648906	-1.715949	1.783924	2.609806	0.000000	0.233011	0.000000	-0.000005	-0.000001	0.000000	0.000000
55.031975	19.255117	16.052895	-1.212794	1.140040	2.716367	0.000000	0.154574	0.000000	-0.000006	-0.000001	0.000000	0.000000
55.581035	20.269618	15.115474	-0.623973	0.577358	2.779045	0.000000	0.073396	0.000000	-0.000006	-0.000001	0.000000	0.000000
56.130095	20.609328	14.769873	0.008922	0.055800	2.796727	0.000000	-0.009085	0.000000	-0.000007	-0.000001	0.000000	0.000000
56.428668	20.640492	14.719596	-0.059446	0.073998	2.796196	0.000000	-0.001777	0.000000	-0.000007	-0.000001	0.000000	0.000000
56.762001	20.685525	14.677854	-0.075653	0.051228	2.795604	0.000000	-0.001777	0.000000	-0.000007	-0.000001	0.000000	0.000000
57.095334	20.741363	14.651291	-0.091859	0.028459	2.795012	0.000000	-0.001777	0.000000	-0.000008	-0.000001	0.000000	0.000000
57.429918	20.808275	14.639895	-0.108127	0.005604	2.794418	0.000000	-0.001777	0.000000	-0.000008	-0.000001	0.000000	0.000000
57.727240	20.876870	14.642601	-0.177133	0.023555	2.793890	0.000000	0.005524	0.000000	-0.000008	-0.000001	0.000000	0.000000
58.276300	20.715232	14.897890	0.469780	-0.491256	2.774285	0.000000	-0.076834	0.000000	-0.000009	-0.000001	0.000000	0.000000
58.825360	19.857303	15.734284	1.083511	-1.041057	2.709768	0.000000	-0.157828	0.000000	-0.000009	-0.000000	0.000000	0.000000
59.374420	18.363684	17.211359	1.620708	-1.665011	2.601485	0.000000	-0.236023	0.000000	-0.000009	-0.000000	0.000000	0.000000
59.923480	16.339874	19.434324	2.043426	-2.407560	2.451356	0.000000	-0.310032	0.000000	-0.000009	0.000000	0.000000	0.000000
60.369440	14.755872	21.410101	1.521045	-2.004130	2.328383	0.000000	-0.241755	0.000000	-0.000009	-0.000000	0.000000	0.000000
60.810400	13.616607	22.966004	1.072359	-1.510888	2.236225	0.000000	-0.176628	0.000000	-0.000009	-0.000000	0.000000	0.000000
61.251360	12.850029	24.054816	0.672666	-0.948902	2.172316	0.000000	-0.113513	0.000000	-0.000009	-0.000000	0.000000	0.000000
61.692320	12.421116	24.626998	0.303705	-0.343742	2.135927	0.000000	-0.051691	0.000000	-0.000009	-0.000001	0.000000	0.000000
62.134530	12.310325	24.655973	-0.021291	0.216535	2.126648	0.000000	0.004327	0.000000	-0.000010	-0.000001	0.000000	0.000000
62.431853	12.330170	24.530965	-0.045455	0.203911	2.127935	0.000000	0.004327	0.000000	-0.000010	-0.000001	0.000000	0.000000
62.765186	12.369503	24.399742	-0.072545	0.189758	2.129377	0.000000	0.004327	0.000000	-0.000010	-0.000001	0.000000	0.000000
63.098520	12.426896	24.277955	-0.099634	0.175604	2.130820	0.000000	0.004327	0.000000	-0.000011	-0.000001	0.000000	0.000000
63.433103	12.502666	24.165200	-0.126826	0.161398	2.132268	0.000000	0.004327	0.000000	-0.000011	-0.000001	0.000000	0.000000
63.730426	12.585267	24.072979	-0.120123	0.089733	2.133555	0.000000	-0.000906	0.000000	-0.000011	-0.000001	0.000000	0.000000
64.171386	12.851489	23.728729	-0.485902	0.687979	2.146694	0.000000	0.060555	0.000000	-0.000012	-0.000001	0.000000	0.000000
64.612346	13.448832	22.868714	-0.873880	1.254923	2.187062	0.000000	0.122706	0.000000	-0.000012	-0.000001	0.000000	0.000000
65.053306	14.404586	21.532064	-1.301784	1.764769	2.255117	0.000000	0.186255	0.000000	-0.000013	-0.000002	0.000000	0.000000
65.494266	15.762418	19.779596	-1.789162	2.194319	2.351636	0.000000	0.251925	0.000000	-0.000014	-0.000002	0.000000	0.000000
65.940226	17.607522	17.666250	-2.362973	2.524782	2.479289	0.000000	0.320865	0.000000	-0.000015	-0.000003	0.000000	0.000000
66.489286	19.972833	15.302092	-1.919456	1.806462	2.635103	0.000000	0.245860	0.000000	-0.000016	-0.000002	0.000000	0.000000
67.038346	21.773325	13.651875	-1.340360	1.216811	2.748474	0.000000	0.166493	0.000000	-0.000017	-0.000001	0.000000	0.000000
67.587406	22.881820	12.598057	-0.666587	0.713832	2.817391	0.000000	0.084173	0.000000	-0.000018	-0.000001	0.000000	0.000000
68.136466	23.220020	12.065577	0.054270	0.261697	2.840632	0.000000	0.000360	0.000000	-0.000018	-0.000000	0.000000	0.000000
68.435038	23.227686	11.898501	-0.019267	0.266353	2.842956	0.000000	0.007783	0.000000	-0.000018	-0.000000	0.000000	0.000000
68.768372	23.245316	11.730933	-0.033623	0.236351	2.845551	0.000000	0.007783	0.000000	-0.000018	-0.000000	0.000000	0.000000
69.101705	23.272517	11.583367	-0.047979	0.206349	2.848146	0.000000	0.007783	0.000000	-0.000018	-0.000000	0.000000	0.000000
69.436288	23.309445	11.455361	-0.062389	0.176234	2.850750	0.000000	0.007783	0.000000	-0.000019	-0.000000	0.000000	0.000000
69.733611	23.350351	11.358521	-0.136214	0.179155	2.853064	0.000000	0.015239	0.000000	-0.000019	-0.000000	0.000000	0.000000
70.282671	23.098899	11.389274	0.591472	-0.235496	2.838252	0.000000	-0.069113	0.000000	-0.000019	0.000000	0.000000	0.000000
