#ParticleID	Turn	x[m]	xp	y[m]	yp	z[m]	dE[GeV]# s	beta_x	beta_y	alpha_x	alpha_y	D_x	D_y	D_px	D_py	orbit_x	orbit_px	orbit_y	orbit_py
0.300000	11.813958	25.018353	-0.011019	-0.027293	2.618047	0.000000	0.000037	0.000000	-0.000000	0.000001	0.000000	0.000000
0.601250	11.828280	25.038427	-0.036522	-0.039343	2.618058	0.000000	0.000037	0.000000	0.000000	0.000001	0.000000	0.000000
0.898573	11.857481	25.065358	-0.032614	-0.112703	2.618069	0.000000	-0.006383	0.000000	0.000001	0.000001	0.000000	0.000000
1.339533	12.038375	24.886710	-0.379169	0.516295	2.631546	0.000000	0.067573	0.000000	0.000001	0.000001	0.000000	0.000000
1.780493	12.531357	24.161616	-0.743046	1.121801	2.677775	0.000000	0.142299	0.000000	0.000002	0.000001	0.000000	0.000000
2.221453	13.358950	22.923066	-1.140872	1.676267	2.757279	0.000000	0.218645	0.000000	0.000002	0.000001	0.000000	0.000000
2.662413	14.558965	21.227415	-1.590820	2.154464	2.870967	0.000000	0.297482	0.000000	0.000003	0.000001	0.000000	0.000000
3.108373	16.206972	19.126945	-2.117739	2.535767	3.021992	0.000000	0.380197	0.000000	0.000003	0.000001	0.000000	0.000000
3.657433	18.320266	16.767807	-1.708407	1.786281	3.205471	0.000000	0.287159	0.000000	0.000004	0.000001	0.000000	0.000000
4.206493	19.914736	15.157416	-1.178401	1.164027	3.336390	0.000000	0.189027	0.000000	0.000005	0.000001	0.000000	0.000000
4.755553	20.877756	14.181069	-0.565159	0.624685	3.412428	0.000000	0.087542	0.000000	0.000005	0.000001	0.000000	0.000000
5.304613	21.141303	13.769221	0.088003	0.129838	3.432236	0.000000	-0.015495	0.000000	0.000006	0.000001	0.000000	0.000000
5.603185	21.125957	13.676859	0.018630	0.143532	3.430287	0.000000	-0.006527	0.000000	0.000006	0.000001	0.000000	0.000000
5.936519	21.118799	13.589462	0.002846	0.118658	3.428111	0.000000	-0.006527	0.000000	0.000006	0.000001	0.000000	0.000000
6.269852	21.122163	13.518648	-0.012938	0.093784	3.425935	0.000000	-0.006527	0.000000	0.000007	0.000001	0.000000	0.000000
6.604435	21.136121	13.464245	-0.028781	0.068817	3.423750	0.000000	-0.006527	0.000000	0.000007	0.000001	0.000000	0.000000
6.901758	21.157421	13.429920	-0.098137	0.081718	3.421809	0.000000	0.002413	0.000000	0.000007	0.000001	0.000000	0.000000
7.450818	20.904602	13.600999	0.555870	-0.395142	3.394932	0.000000	-0.100172	0.000000	0.000008	0.000001	0.000000	0.000000
7.999878	19.951015	14.308016	1.170613	-0.900146	3.312134	0.000000	-0.200980	0.000000	0.000008	0.000000	0.000000	0.000000
8.548938	18.364016	15.601331	1.702669	-1.469265	3.174885	0.000000	-0.298223	0.000000	0.000008	0.000000	0.000000	0.000000
9.097998	16.255703	17.573064	2.114458	-2.143038	2.985620	0.000000	-0.390177	0.000000	0.000008	-0.000000	0.000000	0.000000
9.543958	14.610837	19.329976	1.587028	-1.779929	2.829925	0.000000	-0.308467	0.000000	0.000008	0.000000	0.000000	0.000000
9.984918	13.414456	20.709698	1.136393	-1.337069	2.711150	0.000000	-0.230753	0.000000	0.000008	0.000000	0.000000	0.000000
10.425878	12.591190	21.670432	0.737676	-0.833373	2.626033	0.000000	-0.155668	0.000000	0.000008	0.000000	0.000000	0.000000
10.866838	12.103425	22.168465	0.372662	-0.291759	2.573603	0.000000	-0.082356	0.000000	0.000008	0.000001	0.000000	0.000000
11.309048	11.928743	22.180616	0.053820	0.208680	2.553243	0.000000	-0.016243	0.000000	0.000009	0.000001	0.000000	0.000000
11.606371	11.904172	22.060685	0.028823	0.194692	2.548413	0.000000	-0.016243	0.000000	0.000009	0.000001	0.000000	0.000000
12.086371	11.895873	21.884621	-0.011533	0.172109	2.540616	0.000000	-0.016243	0.000000	0.000009	0.000001	0.000000	0.000000
12.566371	11.926315	21.730236	-0.051888	0.149526	2.532819	0.000000	-0.016243	0.000000	0.000010	0.000001	0.000000	0.000000
13.046371	11.995499	21.597531	-0.092244	0.126943	2.525022	0.000000	-0.016243	0.000000	0.000010	0.000001	0.000000	0.000000
13.526371	12.103423	21.486506	-0.132599	0.104360	2.517225	0.000000	-0.016243	0.000000	0.000011	0.000001	0.000000	0.000000
14.007621	12.250522	21.396955	-0.173060	0.081718	2.509407	0.000000	-0.016243	0.000000	0.000011	0.000001	0.000000	0.000000
14.304943	12.360863	21.352521	-0.167748	0.015373	2.504577	0.000000	-0.022384	0.000000	0.000011	0.000001	0.000000	0.000000
14.745903	12.667346	21.105259	-0.529923	0.543228	2.510340	0.000000	0.048547	0.000000	0.000012	0.000001	0.000000	0.000000
15.186863	13.302667	20.401634	-0.916309	1.046367	2.547472	0.000000	0.120031	0.000000	0.000012	0.000001	0.000000	0.000000
15.627823	14.295852	19.273660	-1.344559	1.501896	2.616396	0.000000	0.192882	0.000000	0.000013	0.000002	0.000000	0.000000
16.068783	15.692277	17.772658	-1.834238	1.889091	2.717899	0.000000	0.267929	0.000000	0.000014	0.000002	0.000000	0.000000
16.514743	17.579397	15.945421	-2.412475	2.191078	2.854830	0.000000	0.346491	0.000000	0.000015	0.000002	0.000000	0.000000
17.063803	20.003134	13.905137	-1.975730	1.546813	3.021339	0.000000	0.259144	0.000000	0.000016	0.000002	0.000000	0.000000
17.612863	21.867336	12.508043	-1.399430	1.012725	3.138555	0.000000	0.167201	0.000000	0.000017	0.000001	0.000000	0.000000
18.161923	23.040324	11.654627	-0.724280	0.550771	3.204399	0.000000	0.072291	0.000000	0.000018	0.000001	0.000000	0.000000
18.710983	23.439245	11.284103	0.002029	0.128047	3.217703	0.000000	-0.023900	0.000000	0.000018	0.000000	0.000000	0.000000
19.009556	23.478415	11.198133	-0.071987	0.130409	3.213076	0.000000	-0.015494	0.000000	0.000018	0.000000	0.000000	0.000000
19.342889	23.531163	11.121285	-0.086258	0.100136	3.207912	0.000000	-0.015494	0.000000	0.000018	0.000000	0.000000	0.000000
19.676223	23.593426	11.064618	-0.100529	0.069863	3.202747	0.000000	-0.015494	0.000000	0.000018	0.000000	0.000000	0.000000
20.010806	23.665782	11.027898	-0.232107	0.094116	3.197582	0.000000	0.000348	0.000000	0.000018	0.000000	0.000000	0.000000
20.308129	23.807740	10.980020	-0.307543	0.095600	3.197686	0.000000	0.008702	0.000000	0.000018	0.000000	0.000000	0.000000
20.857189	23.734834	11.097188	0.439540	-0.310257	3.176239	0.000000	-0.086709	0.000000	0.000019	-0.000000	0.000000	0.000000
21.406249	22.853803	11.669484	1.155577	-0.738214	3.102752	0.000000	-0.180582	0.000000	0.000018	-0.000001	0.000000	0.000000
21.955309	21.226879	12.737670	1.789989	-1.218752	2.978527	0.000000	-0.271252	0.000000	0.000018	-0.000001	0.000000	0.000000
22.504369	18.968980	14.377832	2.297965	-1.786099	2.805769	0.000000	-0.357111	0.000000	0.000017	-0.000002	0.000000	0.000000
22.950329	17.189538	15.850403	1.706258	-1.501994	2.663810	0.000000	-0.279887	0.000000	0.000016	-0.000001	0.000000	0.000000
23.391289	15.914066	17.024472	1.197202	-1.150404	2.556716	0.000000	-0.206305	0.000000	0.000016	-0.000001	0.000000	0.000000
23.832249	15.061816	17.864113	0.742843	-0.746471	2.481521	0.000000	-0.135074	0.000000	0.000015	-0.000001	0.000000	0.000000
24.273209	14.593852	18.331123	0.322422	-0.308575	2.437367	0.000000	-0.065381	0.000000	0.000015	-0.000000	0.000000	0.000000
24.715418	14.488913	18.404008	-0.047829	0.098167	2.423749	0.000000	-0.002375	0.000000	0.000015	0.000000	0.000000	0.000000
25.012741	14.523470	18.350483	-0.068397	0.081856	2.423042	0.000000	-0.002375	0.000000	0.000015	0.000000	0.000000	0.000000
25.346075	14.576754	18.302008	-0.091455	0.063569	2.422251	0.000000	-0.002375	0.000000	0.000015	0.000000	0.000000	0.000000
25.679408	14.645410	18.265724	-0.114514	0.045283	2.421459	0.000000	-0.002375	0.000000	0.000015	0.000000	0.000000	0.000000
26.013991	14.729484	18.241933	-0.018164	-0.121060	2.420640	0.000000	-0.022013	0.000000	0.000015	-0.000000	0.000000	0.000000
26.311314	14.746289	18.318838	-0.002199	-0.182514	2.414095	0.000000	-0.027932	0.000000	0.000015	-0.000000	0.000000	0.000000
26.752274	14.929909	18.281131	-0.415789	0.267700	2.416892	0.000000	0.040628	0.000000	0.000015	0.000000	0.000000	0.000000
27.193234	15.485248	17.850246	-0.848375	0.705734	2.449994	0.000000	0.109651	0.000000	0.000016	0.000001	0.000000	0.000000
27.634194	16.437679	17.045787	-1.319721	1.111658	2.513778	0.000000	0.179923	0.000000	0.000016	0.000001	0.000000	0.000000
28.075154	17.830715	15.904357	-1.851361	1.467002	2.608971	0.000000	0.252244	0.000000	0.000017	0.000002	0.000000	0.000000
28.521114	19.752201	14.460697	-2.472552	1.756511	2.738261	0.000000	0.327882	0.000000	0.000017	0.000002	0.000000	0.000000
29.070174	22.194424	12.852181	-1.949124	1.190362	2.895616	0.000000	0.244460	0.000000	0.000018	0.000001	0.000000	0.000000
29.619234	23.982395	11.815438	-1.288019	0.708999	3.005909	0.000000	0.156702	0.000000	0.000019	0.000001	0.000000	0.000000
30.168294	24.989820	11.276621	-0.535935	0.278137	3.067182	0.000000	0.066165	0.000000	0.000019	0.000000	0.000000	0.000000
30.717354	25.145539	11.197352	0.254004	-0.132914	3.078350	0.000000	-0.025546	0.000000	0.000019	-0.000000	0.000000	0.000000
31.015927	25.036759	11.267300	0.176019	-0.130613	3.073123	0.000000	-0.017505	0.000000	0.000019	-0.000000	0.000000	0.000000
31.349260	24.923988	11.364405	0.162293	-0.160702	3.067289	0.000000	-0.017505	0.000000	0.000019	-0.000000	0.000000	0.000000
31.682593	24.820368	11.481569	0.148567	-0.190790	3.061454	0.000000	-0.017505	0.000000	0.000019	-0.000000	0.000000	0.000000
32.017177	24.725562	11.619344	0.134789	-0.220992	3.055597	0.000000	-0.017505	0.000000	0.000019	-0.000000	0.000000	0.000000
32.314499	24.649051	11.758736	0.058152	-0.217112	3.050393	0.000000	-0.009536	0.000000	0.000019	-0.000000	0.000000	0.000000
32.863559	24.162874	12.236364	0.822077	-0.657924	3.020269	0.000000	-0.100034	0.000000	0.000018	-0.000001	0.000000	0.000000
33.412619	22.864893	13.220796	1.527934	-1.145599	2.940871	0.000000	-0.188757	0.000000	0.000018	-0.000001	0.000000	0.000000
33.961679	20.846790	14.782151	2.125866	-1.714873	2.813607	0.000000	-0.274133	0.000000	0.000017	-0.000002	0.000000	0.000000
34.510739	18.251115	17.031641	2.573636	-2.406293	2.640735	0.000000	-0.354646	0.000000	0.000015	-0.000003	0.000000	0.000000
34.956699	16.232868	19.043729	1.968200	-2.086681	2.498923	0.000000	-0.281701	0.000000	0.000014	-0.000002	0.000000	0.000000
35.397659	14.727892	20.707874	1.457699	-1.672872	2.390090	0.000000	-0.212393	0.000000	0.000013	-0.000002	0.000000	0.000000
35.838619	13.642181	21.971987	1.013795	-1.182948	2.311256	0.000000	-0.145504	0.000000	0.000013	-0.000001	0.000000	0.000000
36.279579	12.926130	22.778551	0.616210	-0.639201	2.261525	0.000000	-0.080272	0.000000	0.000012	-0.000001	0.000000	0.000000
36.721789	12.546331	23.091177	0.277435	-0.123045	2.240303	0.000000	-0.021448	0.000000	0.000012	-0.000001	0.000000	0.000000
37.019112	12.388944	23.168231	0.251913	-0.136116	2.233926	0.000000	-0.021448	0.000000	0.000011	-0.000001	0.000000	0.000000
37.352445	12.230539	23.263860	0.223300	-0.150770	2.226777	0.000000	-0.021448	0.000000	0.000011	-0.000001	0.000000	0.000000
37.685779	12.091210	23.369258	0.194687	-0.165424	2.219628	0.000000	-0.021448	0.000000	0.000011	-0.000001	0.000000	0.000000
38.020362	11.970541	23.484876	0.165967	-0.180133	2.212452	0.000000	-0.021448	0.000000	0.000011	-0.000001	0.000000	0.000000
38.317684	11.879438	23.595878	0.169574	-0.251063	2.206076	0.000000	-0.026857	0.000000	0.000010	-0.000001	0.000000	0.000000
38.758644	11.881339	23.555942	-0.173900	0.341286	2.208163	0.000000	0.036331	0.000000	0.000010	-0.000001	0.000000	0.000000
39.199604	12.188500	22.998479	-0.525318	0.918107	2.238178	0.000000	0.099933	0.000000	0.000010	-0.000000	0.000000	0.000000
39.640564	12.814956	21.948853	-0.900736	1.453154	2.296463	0.000000	0.164674	0.000000	0.000010	-0.000000	0.000000	0.000000
40.081524	13.789329	20.454822	-1.317307	1.922084	2.383682	0.000000	0.231290	0.000000	0.000010	0.000000	0.000000	0.000000
40.527484	15.173708	18.561792	-1.797889	2.304845	2.502301	0.000000	0.300945	0.000000	0.000010	0.000000	0.000000	0.000000
41.076544	16.940333	16.434496	-1.400608	1.592457	2.647004	0.000000	0.225374	0.000000	0.000010	0.000000	0.000000	0.000000
41.625604	18.213454	15.022984	-0.904395	0.993496	2.749054	0.000000	0.145805	0.000000	0.000010	-0.000000	0.000000	0.000000
42.174664	18.903146	14.226717	-0.344300	0.465300	2.806640	0.000000	0.063650	0.000000	0.000010	-0.000001	0.000000	0.000000
42.723724	18.960690	13.988979	0.240114	-0.029754	2.818742	0.000000	-0.019635	0.000000	0.000009	-0.000001	0.000000	0.000000
43.022297	18.851760	13.991295	0.174258	-0.014550	2.815079	0.000000	-0.012270	0.000000	0.000009	-0.000001	0.000000	0.000000
43.502297	18.697065	14.021733	0.148023	-0.048864	2.809189	0.000000	-0.012270	0.000000	0.000008	-0.000001	0.000000	0.000000
43.982297	18.567555	14.085114	0.121788	-0.083179	2.803300	0.000000	-0.012270	0.000000	0.000008	-0.000001	0.000000	0.000000
44.462297	18.463231	14.181436	0.095553	-0.117493	2.797411	0.000000	-0.012270	0.000000	0.000008	-0.000001	0.000000	0.000000
44.942297	18.384093	14.310700	0.069318	-0.151807	2.791521	0.000000	-0.012270	0.000000	0.000007	-0.000001	0.000000	0.000000
45.423547	18.330259	14.473192	-0.047803	-0.114502	2.785634	0.000000	0.001531	0.000000	0.000007	-0.000001	0.000000	0.000000
45.720870	18.363519	14.547468	-0.112038	-0.097306	2.786089	0.000000	0.008810	0.000000	0.000007	-0.000001	0.000000	0.000000
46.269930	18.177345	14.935675	0.449109	-0.613907	2.768353	0.000000	-0.073324	0.000000	0.000006	-0.000001	0.000000	0.000000
46.818990	17.388816	15.911711	0.978533	-1.174234	2.705810	0.000000	-0.154159	0.000000	0.000005	-0.000001	0.000000	0.000000
47.368050	16.053629	17.545096	1.438838	-1.818200	2.599571	0.000000	-0.232259	0.000000	0.000005	-0.000001	0.000000	0.000000
47.917110	14.266097	19.952172	1.797512	-2.591672	2.451521	0.000000	-0.306239	0.000000	0.000004	-0.000002	0.000000	0.000000
48.363070	12.875060	22.092260	1.332737	-2.186988	2.330244	0.000000	-0.237935	0.000000	0.000003	-0.000001	0.000000	0.000000
48.804030	11.879903	23.805762	0.932620	-1.684071	2.239785	0.000000	-0.172739	0.000000	0.000003	-0.000001	0.000000	0.000000
49.244990	11.217566	25.040121	0.575113	-1.104530	2.177615	0.000000	-0.109510	0.000000	0.000002	-0.000001	0.000000	0.000000
49.685950	10.857787	25.739173	0.243880	-0.474734	2.143024	0.000000	-0.047528	0.000000	0.000002	-0.000001	0.000000	0.000000
50.128160	10.784255	25.870830	-0.049880	0.113171	2.135631	0.000000	0.008676	0.000000	0.000001	-0.000001	0.000000	0.000000
50.425482	10.822134	25.806994	-0.077519	0.101531	2.138211	0.000000	0.008676	0.000000	0.000001	-0.000001	0.000000	0.000000
50.758816	10.884142	25.743657	-0.108505	0.088481	2.141103	0.000000	0.008676	0.000000	0.000000	-0.000001	0.000000	0.000000
51.092149	10.966807	25.689019	-0.139491	0.075432	2.143996	0.000000	0.008676	0.000000	-0.000000	-0.000001	0.000000	0.000000
51.426732	11.070332	25.643445	-0.080784	-0.145699	2.146877	0.000000	-0.008741	0.000000	-0.000001	-0.000001	0.000000	0.000000
51.724055	11.126407	25.733605	-0.080531	-0.220647	2.144278	0.000000	-0.014000	0.000000	-0.000001	-0.000001	0.000000	0.000000
52.165015	11.342709	25.641898	-0.411854	0.427826	2.151694	0.000000	0.047664	0.000000	-0.000001	-0.000001	0.000000	0.000000
52.605975	11.858371	24.984723	-0.761992	1.056833	2.186395	0.000000	0.109871	0.000000	-0.000002	-0.000001	0.000000	0.000000
53.046935	12.696954	23.791979	-1.146944	1.637755	2.248776	0.000000	0.173329	0.000000	-0.000003	-0.000001	0.000000	0.000000
53.487895	13.896770	22.117935	-1.584296	2.144160	2.339548	0.000000	0.238762	0.000000	-0.000003	-0.000001	0.000000	0.000000
53.933855	15.533203	20.013731	-2.098259	2.554345	2.461249	0.000000	0.307312	0.000000	-0.000004	-0.000001	0.000000	0.000000
54.482915	17.640070	17.645955	-1.716252	1.783528	2.609803	0.000000	0.233008	0.000000	-0.000005	-0.000001	0.000000	0.000000
55.031975	19.257992	16.050319	-1.213018	1.139749	2.716363	0.000000	0.154572	0.000000	-0.000005	-0.000001	0.000000	0.000000
55.581035	20.272688	15.113170	-0.624102	0.577151	2.779039	0.000000	0.073393	0.000000	-0.000006	-0.000001	0.000000	0.000000
56.130095	20.612484	14.767757	0.008897	0.055662	2.796720	0.000000	-0.009087	0.000000	-0.000006	-0.000001	0.000000	0.000000
56.428668	20.643666	14.717567	-0.059477	0.073852	2.796189	0.000000	-0.001779	0.000000	-0.000007	-0.000001	0.000000	0.000000
56.762001	20.688719	14.675923	-0.075681	0.051080	2.795596	0.000000	-0.001779	0.000000	-0.000007	-0.000001	0.000000	0.000000
57.095334	20.744574	14.649460	-0.091885	0.028307	2.795003	0.000000	-0.001779	0.000000	-0.000007	-0.000001	0.000000	0.000000
57.429918	20.811503	14.638166	-0.108150	0.005450	2.794408	0.000000	-0.001779	0.000000	-0.000007	-0.000001	0.000000	0.000000
57.727240	20.880111	14.640964	-0.177163	0.023394	2.793879	0.000000	0.005521	0.000000	-0.000008	-0.000001	0.000000	0.000000
58.276300	20.718446	14.896405	0.469859	-0.491373	2.774273	0.000000	-0.076836	0.000000	-0.000008	-0.000001	0.000000	0.000000
58.825360	19.860373	15.732908	1.083693	-1.041139	2.709755	0.000000	-0.157830	0.000000	-0.000008	-0.000000	0.000000	0.000000
59.374420	18.366503	17.210057	1.620980	-1.665064	2.601471	0.000000	-0.236024	0.000000	-0.000008	-0.000000	0.000000	0.000000
59.923480	16.342354	19.433064	2.043769	-2.407587	2.451341	0.000000	-0.310033	0.000000	-0.000008	0.000000	0.000000	0.000000
60.369440	14.758079	21.408885	1.521314	-2.004201	2.328368	0.000000	-0.241756	0.000000	-0.000008	0.000000	0.000000	0.000000
60.810400	13.618604	22.964869	1.072567	-1.511001	2.236210	0.000000	-0.176630	0.000000	-0.000008	-0.000000	0.000000	0.000000
61.251360	12.851866	24.053797	0.672822	-0.949051	2.172300	0.000000	-0.113515	0.000000	-0.000009	-0.000000	0.000000	0.000000
61.692320	12.422835	24.626124	0.303817	-0.343920	2.135910	0.000000	-0.051693	0.000000	-0.000009	-0.000001	0.000000	0.000000
62.134530	12.311962	24.655267	-0.021214	0.216338	2.126630	0.000000	0.004324	0.000000	-0.000009	-0.000001	0.000000	0.000000
62.431853	12.331760	24.530376	-0.045374	0.203714	2.127916	0.000000	0.004324	0.000000	-0.000009	-0.000001	0.000000	0.000000
62.765186	12.371039	24.399284	-0.072460	0.189561	2.129358	0.000000	0.004324	0.000000	-0.000010	-0.000001	0.000000	0.000000
63.098520	12.428374	24.277627	-0.099547	0.175409	2.130799	0.000000	0.004324	0.000000	-0.000010	-0.000001	0.000000	0.000000
63.433103	12.504084	24.165002	-0.126734	0.161203	2.132246	0.000000	0.004324	0.000000	-0.000010	-0.000001	0.000000	0.000000
63.730426	12.586629	24.072897	-0.120025	0.089540	2.133532	0.000000	-0.000909	0.000000	-0.000011	-0.000001	0.000000	0.000000
64.171386	12.852778	23.728817	-0.485832	0.687789	2.146670	0.000000	0.060552	0.000000	-0.000011	-0.000001	0.000000	0.000000
64.612346	13.450071	22.868965	-0.873836	1.254744	2.187036	0.000000	0.122702	0.000000	-0.000012	-0.000001	0.000000	0.000000
65.053306	14.405797	21.532465	-1.301763	1.764610	2.255090	0.000000	0.186250	0.000000	-0.000012	-0.000002	0.000000	0.000000
65.494266	15.763620	19.780127	-1.789163	2.194187	2.351606	0.000000	0.251919	0.000000	-0.000013	-0.000002	0.000000	0.000000
65.940226	17.608735	17.666884	-2.362997	2.524683	2.479257	0.000000	0.320859	0.000000	-0.000014	-0.000002	0.000000	0.000000
66.489286	19.974045	15.302835	-1.919430	1.806363	2.635067	0.000000	0.245855	0.000000	-0.000015	-0.000002	0.000000	0.000000
67.038346	21.774481	13.652730	-1.340285	1.216705	2.748436	0.000000	0.166489	0.000000	-0.000016	-0.000001	0.000000	0.000000
67.587406	22.882871	12.599036	-0.666469	0.713710	2.817352	0.000000	0.084171	0.000000	-0.000017	-0.000001	0.000000	0.000000
68.136466	23.220922	12.066700	0.054423	0.261552	2.840592	0.000000	0.000359	0.000000	-0.000017	-0.000000	0.000000	0.000000
68.435038	23.228498	11.899709	-0.019116	0.266216	2.842916	0.000000	0.007782	0.000000	-0.000017	-0.000000	0.000000	0.000000
68.768372	23.246027	11.732231	-0.033472	0.236219	2.845510	0.000000	0.007782	0.000000	-0.000017	-0.000000	0.000000	0.000000
69.101705	23.273127	11.584751	-0.047827	0.206221	2.848104	0.000000	0.007782	0.000000	-0.000017	-0.000000	0.000000	0.000000
69.436288	23.309952	11.456828	-0.062236	0.176112	2.850708	0.000000	0.007782	0.000000	-0.000018	-0.000000	0.000000	0.000000
69.733611	23.350768	11.360060	-0.136061	0.179041	2.853021	0.000000	0.015237	0.000000	-0.000018	-0.000000	0.000000	0.000000
70.282671	23.099141	11.390961	0.591634	-0.235655	2.838209	0.000000	-0.069113	0.000000	-0.000018	0.000000	0.000000	0.000000
