#ParticleID	Turn	x[m]	xp	y[m]	yp	z[m]	dE[GeV]# s	beta_x	beta_y	alpha_x	alpha_y	D_x	D_y	D_px	D_py	orbit_x	orbit_px	orbit_y	orbit_py
0.300000	11.806425	25.048429	-0.010276	-0.026939	2.618180	0.000000	-0.000013	0.000000	-0.000002	0.000002	0.000000	0.000000
0.601250	11.820304	25.068285	-0.035794	-0.038974	2.618176	0.000000	-0.000013	0.000000	-0.000001	0.000002	0.000000	0.000000
0.898573	11.849077	25.094993	-0.031923	-0.112393	2.618171	0.000000	-0.006433	0.000000	-0.000001	0.000002	0.000000	0.000000
1.339533	12.029271	24.915727	-0.378268	0.517381	2.631627	0.000000	0.067525	0.000000	0.000000	0.000002	0.000000	0.000000
1.780493	12.521352	24.189349	-0.741895	1.123615	2.677835	0.000000	0.142253	0.000000	0.000001	0.000002	0.000000	0.000000
2.221453	13.347800	22.948909	-1.139417	1.678725	2.757319	0.000000	0.218601	0.000000	0.000002	0.000002	0.000000	0.000000
2.662413	14.546375	21.250846	-1.588996	2.157455	2.870987	0.000000	0.297439	0.000000	0.000002	0.000002	0.000000	0.000000
3.108373	16.192559	19.147518	-2.115458	2.539155	3.021993	0.000000	0.380153	0.000000	0.000003	0.000002	0.000000	0.000000
3.657433	18.303544	16.785127	-1.706507	1.788852	3.205447	0.000000	0.287116	0.000000	0.000004	0.000002	0.000000	0.000000
4.206493	19.896200	15.172277	-1.177017	1.165964	3.336343	0.000000	0.188985	0.000000	0.000005	0.000002	0.000000	0.000000
4.755553	20.858030	14.194086	-0.564388	0.626125	3.412358	0.000000	0.087502	0.000000	0.000006	0.000001	0.000000	0.000000
5.304613	21.121095	13.780881	0.088106	0.130884	3.432145	0.000000	-0.015532	0.000000	0.000007	0.000001	0.000000	0.000000
5.603185	21.105660	13.687873	0.018772	0.144620	3.430184	0.000000	-0.006565	0.000000	0.000007	0.000001	0.000000	0.000000
5.936519	21.098411	13.599747	0.002973	0.119758	3.427995	0.000000	-0.006565	0.000000	0.000007	0.000001	0.000000	0.000000
6.269852	21.101695	13.528196	-0.012826	0.094896	3.425807	0.000000	-0.006565	0.000000	0.000008	0.000001	0.000000	0.000000
6.604435	21.115584	13.473044	-0.028684	0.069941	3.423610	0.000000	-0.006565	0.000000	0.000008	0.000001	0.000000	0.000000
6.901758	21.136831	13.438047	-0.097999	0.082874	3.421657	0.000000	0.002374	0.000000	0.000009	0.000001	0.000000	0.000000
7.450818	20.884239	13.607976	0.555320	-0.394192	3.394760	0.000000	-0.100205	0.000000	0.000009	0.000001	0.000000	0.000000
7.999878	19.931618	14.314032	1.169414	-0.899335	3.311945	0.000000	-0.201007	0.000000	0.000010	0.000001	0.000000	0.000000
8.548938	18.346255	15.606506	1.700906	-1.468536	3.174683	0.000000	-0.298244	0.000000	0.000010	0.000000	0.000000	0.000000
9.097998	16.240133	17.577459	2.112255	-2.142337	2.985408	0.000000	-0.390191	0.000000	0.000010	0.000000	0.000000	0.000000
9.543958	14.597016	19.333651	1.585294	-1.779020	2.829705	0.000000	-0.308486	0.000000	0.000010	0.000000	0.000000	0.000000
9.984918	13.401989	20.712495	1.135045	-1.335995	2.710921	0.000000	-0.230779	0.000000	0.000010	0.000001	0.000000	0.000000
10.425878	12.579764	21.672227	0.736653	-0.832183	2.625791	0.000000	-0.155700	0.000000	0.000011	0.000001	0.000000	0.000000
10.866838	12.092777	22.169180	0.371916	-0.290508	2.573345	0.000000	-0.082394	0.000000	0.000011	0.000001	0.000000	0.000000
11.309048	11.918646	22.180218	0.053291	0.209939	2.552966	0.000000	-0.016287	0.000000	0.000012	0.000001	0.000000	0.000000
11.606371	11.894394	22.059540	0.028274	0.195943	2.548123	0.000000	-0.016287	0.000000	0.000012	0.000001	0.000000	0.000000
12.086371	11.886637	21.882280	-0.012113	0.173348	2.540305	0.000000	-0.016287	0.000000	0.000013	0.000001	0.000000	0.000000
12.566371	11.917651	21.726711	-0.052500	0.150754	2.532486	0.000000	-0.016287	0.000000	0.000013	0.000001	0.000000	0.000000
13.046371	11.987438	21.592833	-0.092888	0.128159	2.524668	0.000000	-0.016287	0.000000	0.000014	0.000001	0.000000	0.000000
13.526371	12.095996	21.480646	-0.133275	0.105564	2.516849	0.000000	-0.016287	0.000000	0.000015	0.000001	0.000000	0.000000
14.007621	12.243761	21.389942	-0.173768	0.082911	2.509010	0.000000	-0.016287	0.000000	0.000015	0.000001	0.000000	0.000000
14.304943	12.354529	21.344801	-0.168492	0.016580	2.504167	0.000000	-0.022427	0.000000	0.000016	0.000001	0.000000	0.000000
14.745903	12.661613	21.096575	-0.530548	0.544200	2.509908	0.000000	0.048493	0.000000	0.000016	0.000002	0.000000	0.000000
15.186863	13.297443	20.392211	-0.916843	1.047061	2.547014	0.000000	0.119965	0.000000	0.000017	0.000002	0.000000	0.000000
15.627823	14.291068	19.263760	-1.345026	1.502280	2.615907	0.000000	0.192804	0.000000	0.000018	0.000003	0.000000	0.000000
16.068783	15.687884	17.762562	-1.834659	1.889148	2.717372	0.000000	0.267839	0.000000	0.000020	0.000003	0.000000	0.000000
16.514743	17.575367	15.935423	-2.412871	2.190803	2.854259	0.000000	0.346387	0.000000	0.000021	0.000004	0.000000	0.000000
17.063803	19.999665	13.895313	-1.976348	1.546770	3.020715	0.000000	0.259059	0.000000	0.000023	0.000003	0.000000	0.000000
17.612863	21.864648	12.498142	-1.400226	1.012910	3.137890	0.000000	0.167136	0.000000	0.000024	0.000002	0.000000	0.000000
18.161923	23.038584	11.644393	-0.725198	0.551197	3.203704	0.000000	0.072249	0.000000	0.000025	0.000001	0.000000	0.000000
18.710983	23.438551	11.273254	0.001054	0.128745	3.216991	0.000000	-0.023920	0.000000	0.000026	0.000001	0.000000	0.000000
19.009556	23.478301	11.186895	-0.072958	0.131046	3.212358	0.000000	-0.015516	0.000000	0.000026	0.000001	0.000000	0.000000
19.342889	23.531697	11.109634	-0.087231	0.100737	3.207185	0.000000	-0.015516	0.000000	0.000026	0.000001	0.000000	0.000000
19.676223	23.594609	11.052578	-0.101504	0.070429	3.202013	0.000000	-0.015516	0.000000	0.000026	0.000001	0.000000	0.000000
20.010806	23.667619	11.015492	-0.233094	0.094584	3.196841	0.000000	0.000323	0.000000	0.000026	0.000001	0.000000	0.000000
20.308129	23.810165	10.967345	-0.308536	0.096001	3.196937	0.000000	0.008674	0.000000	0.000027	0.000001	0.000000	0.000000
20.857189	23.738300	11.083876	0.438648	-0.309492	3.175481	0.000000	-0.086713	0.000000	0.000027	-0.000000	0.000000	0.000000
21.406249	22.858164	11.655108	1.154849	-0.737029	3.101999	0.000000	-0.180561	0.000000	0.000027	-0.000001	0.000000	0.000000
21.955309	21.231925	12.721726	1.789477	-1.217063	2.977792	0.000000	-0.271207	0.000000	0.000026	-0.000002	0.000000	0.000000
22.504369	18.974452	14.359704	2.297705	-1.783786	2.805066	0.000000	-0.357043	0.000000	0.000025	-0.000003	0.000000	0.000000
22.950329	17.195274	15.830396	1.705920	-1.500112	2.663133	0.000000	-0.279837	0.000000	0.000024	-0.000002	0.000000	0.000000
23.391289	15.920140	17.003027	1.196770	-1.149036	2.556058	0.000000	-0.206273	0.000000	0.000023	-0.000001	0.000000	0.000000
23.832249	15.068320	17.841713	0.742298	-0.745680	2.480873	0.000000	-0.135058	0.000000	0.000022	-0.000001	0.000000	0.000000
24.273209	14.600895	18.308293	0.321739	-0.308396	2.436723	0.000000	-0.065381	0.000000	0.000022	-0.000000	0.000000	0.000000
24.715418	14.496632	18.381296	-0.048665	0.097784	2.423100	0.000000	-0.002390	0.000000	0.000022	0.000000	0.000000	0.000000
25.012741	14.531683	18.328004	-0.069223	0.081454	2.422390	0.000000	-0.002390	0.000000	0.000022	0.000000	0.000000	0.000000
25.346075	14.585514	18.279805	-0.092271	0.063146	2.421593	0.000000	-0.002390	0.000000	0.000022	0.000000	0.000000	0.000000
25.679408	14.654711	18.243810	-0.115319	0.044838	2.420796	0.000000	-0.002390	0.000000	0.000023	0.000000	0.000000	0.000000
26.013991	14.739320	18.220324	-0.018879	-0.121350	2.419972	0.000000	-0.022022	0.000000	0.000023	0.000000	0.000000	0.000000
26.311314	14.756546	18.297407	-0.002879	-0.182770	2.413424	0.000000	-0.027940	0.000000	0.000023	0.000000	0.000000	0.000000
26.752274	14.940878	18.260181	-0.416730	0.266868	2.416213	0.000000	0.040603	0.000000	0.000023	0.000001	0.000000	0.000000
27.193234	15.497178	17.830271	-0.849620	0.704364	2.449300	0.000000	0.109608	0.000000	0.000023	0.000001	0.000000	0.000000
27.634194	16.450862	17.027235	-1.321328	1.109812	2.513061	0.000000	0.179862	0.000000	0.000024	0.000002	0.000000	0.000000
28.075154	17.845501	15.887613	-1.853403	1.464764	2.608223	0.000000	0.252164	0.000000	0.000025	0.000002	0.000000	0.000000
28.521114	19.769039	14.446086	-2.475126	1.753983	2.737472	0.000000	0.327782	0.000000	0.000026	0.000003	0.000000	0.000000
29.070174	22.213860	12.840020	-1.951252	1.188402	2.894779	0.000000	0.244386	0.000000	0.000028	0.000002	0.000000	0.000000
29.619234	24.003853	11.805181	-1.289551	0.707470	3.005039	0.000000	0.156656	0.000000	0.000029	0.000001	0.000000	0.000000
30.168294	25.012580	11.267858	-0.536762	0.276928	3.066295	0.000000	0.066147	0.000000	0.000029	0.000000	0.000000	0.000000
30.717354	25.168791	11.189781	0.253941	-0.133888	3.077461	0.000000	-0.025535	0.000000	0.000029	-0.000001	0.000000	0.000000
31.015927	25.060078	11.260331	0.175913	-0.131633	3.072237	0.000000	-0.017496	0.000000	0.000029	-0.000000	0.000000	0.000000
31.349260	24.947374	11.358125	0.162200	-0.161748	3.066405	0.000000	-0.017496	0.000000	0.000029	-0.000000	0.000000	0.000000
31.682593	24.843812	11.475996	0.148487	-0.191864	3.060573	0.000000	-0.017496	0.000000	0.000029	-0.000000	0.000000	0.000000
32.017177	24.749055	11.614498	0.134722	-0.222092	3.054719	0.000000	-0.017496	0.000000	0.000029	-0.000000	0.000000	0.000000
32.314499	24.672580	11.754551	0.058041	-0.218249	3.049517	0.000000	-0.009530	0.000000	0.000028	-0.000000	0.000000	0.000000
32.863559	24.186096	12.233391	0.822743	-0.659006	3.019404	0.000000	-0.100000	0.000000	0.000028	-0.000001	0.000000	0.000000
33.412619	22.886975	13.219016	1.529331	-1.146704	2.940032	0.000000	-0.188696	0.000000	0.000027	-0.000002	0.000000	0.000000
33.961679	20.866979	14.781632	2.127895	-1.716078	2.812810	0.000000	-0.274045	0.000000	0.000026	-0.000003	0.000000	0.000000
34.510739	18.268792	17.032539	2.576154	-2.407685	2.639994	0.000000	-0.354534	0.000000	0.000024	-0.000004	0.000000	0.000000
34.956699	16.248548	19.045923	1.970176	-2.088182	2.498228	0.000000	-0.281607	0.000000	0.000022	-0.000003	0.000000	0.000000
35.397659	14.742032	20.711414	1.459228	-1.674412	2.389433	0.000000	-0.212317	0.000000	0.000021	-0.000003	0.000000	0.000000
35.838619	13.655142	21.976877	1.014948	-1.184457	2.310629	0.000000	-0.145444	0.000000	0.000020	-0.000002	0.000000	0.000000
36.279579	12.938220	22.784734	0.617038	-0.640611	2.260921	0.000000	-0.080228	0.000000	0.000019	-0.000002	0.000000	0.000000
36.721789	12.557818	23.098538	0.278004	-0.124306	2.239715	0.000000	-0.021417	0.000000	0.000018	-0.000001	0.000000	0.000000
37.019112	12.400088	23.176342	0.252498	-0.137377	2.233348	0.000000	-0.021417	0.000000	0.000018	-0.000001	0.000000	0.000000
37.352445	12.241288	23.272811	0.223902	-0.152030	2.226209	0.000000	-0.021417	0.000000	0.000018	-0.000001	0.000000	0.000000
37.685779	12.101552	23.379049	0.195307	-0.166684	2.219071	0.000000	-0.021417	0.000000	0.000017	-0.000001	0.000000	0.000000
38.020362	11.980462	23.495510	0.166604	-0.181393	2.211905	0.000000	-0.021417	0.000000	0.000017	-0.000001	0.000000	0.000000
38.317684	11.888975	23.607261	0.170249	-0.252347	2.205538	0.000000	-0.026825	0.000000	0.000016	-0.000001	0.000000	0.000000
38.758644	11.890375	23.568320	-0.173435	0.340321	2.207636	0.000000	0.036350	0.000000	0.000016	-0.000001	0.000000	0.000000
39.199604	12.197211	23.011550	-0.525042	0.917505	2.237657	0.000000	0.099938	0.000000	0.000016	-0.000000	0.000000	0.000000
39.640564	12.823502	21.962285	-0.900637	1.452943	2.295942	0.000000	0.164665	0.000000	0.000016	-0.000000	0.000000	0.000000
40.081524	13.797863	20.468264	-1.317379	1.922273	2.383154	0.000000	0.231268	0.000000	0.000016	0.000000	0.000000	0.000000
40.527484	15.182386	18.574887	-1.798138	2.305428	2.501759	0.000000	0.300909	0.000000	0.000016	0.000001	0.000000	0.000000
41.076544	16.949097	16.447147	-1.400516	1.592687	2.646447	0.000000	0.225356	0.000000	0.000016	0.000000	0.000000	0.000000
41.625604	18.221932	15.035568	-0.903969	0.993389	2.748492	0.000000	0.145805	0.000000	0.000016	-0.000000	0.000000	0.000000
42.174664	18.910984	14.239608	-0.343569	0.464847	2.806084	0.000000	0.063668	0.000000	0.000016	-0.000001	0.000000	0.000000
42.723724	18.967582	14.002570	0.241098	-0.030584	2.818201	0.000000	-0.019599	0.000000	0.000015	-0.000001	0.000000	0.000000
43.022297	18.858074	14.005355	0.175226	-0.015325	2.814548	0.000000	-0.012236	0.000000	0.000015	-0.000001	0.000000	0.000000
43.502297	18.702449	14.036522	0.148992	-0.049606	2.808675	0.000000	-0.012236	0.000000	0.000014	-0.000001	0.000000	0.000000
43.982297	18.572010	14.100598	0.122757	-0.083887	2.802802	0.000000	-0.012236	0.000000	0.000014	-0.000001	0.000000	0.000000
44.462297	18.466756	14.197584	0.096522	-0.118167	2.796929	0.000000	-0.012236	0.000000	0.000013	-0.000001	0.000000	0.000000
44.942297	18.386688	14.327480	0.070287	-0.152448	2.791057	0.000000	-0.012236	0.000000	0.000012	-0.000001	0.000000	0.000000
45.423547	18.331922	14.490572	-0.046843	-0.115023	2.785186	0.000000	0.001563	0.000000	0.000012	-0.000001	0.000000	0.000000
45.720870	18.364610	14.565151	-0.111076	-0.097760	2.785651	0.000000	0.008841	0.000000	0.000012	-0.000001	0.000000	0.000000
46.269930	18.177367	14.954154	0.450080	-0.614910	2.767935	0.000000	-0.073280	0.000000	0.000011	-0.000002	0.000000	0.000000
46.818990	17.387797	15.931624	0.979445	-1.175859	2.705421	0.000000	-0.154101	0.000000	0.000010	-0.000002	0.000000	0.000000
47.368050	16.051671	17.567185	1.439627	-1.820562	2.599217	0.000000	-0.232189	0.000000	0.000009	-0.000002	0.000000	0.000000
47.917110	14.263367	19.977334	1.798120	-2.594939	2.451208	0.000000	-0.306159	0.000000	0.000008	-0.000002	0.000000	0.000000
48.363070	12.871794	22.120094	1.333336	-2.189688	2.329966	0.000000	-0.237863	0.000000	0.000006	-0.000002	0.000000	0.000000
48.804030	11.876102	23.835683	0.933239	-1.686084	2.239538	0.000000	-0.172673	0.000000	0.000006	-0.000002	0.000000	0.000000
49.244990	11.213200	25.071479	0.575779	-1.105764	2.177395	0.000000	-0.109450	0.000000	0.000005	-0.000002	0.000000	0.000000
49.685950	10.852802	25.771255	0.244624	-0.475134	2.142831	0.000000	-0.047473	0.000000	0.000004	-0.000002	0.000000	0.000000
50.128160	10.778565	25.902887	-0.049039	0.113547	2.135461	0.000000	0.008726	0.000000	0.000003	-0.000002	0.000000	0.000000
50.425482	10.815947	25.838824	-0.076690	0.101920	2.138056	0.000000	0.008726	0.000000	0.000002	-0.000002	0.000000	0.000000
50.758816	10.877407	25.775222	-0.107690	0.088886	2.140965	0.000000	0.008726	0.000000	0.000002	-0.000002	0.000000	0.000000
51.092149	10.959534	25.720309	-0.138690	0.075851	2.143874	0.000000	0.008726	0.000000	0.000001	-0.000002	0.000000	0.000000
51.426732	11.062527	25.674450	-0.080060	-0.145516	2.146773	0.000000	-0.008690	0.000000	0.000001	-0.000002	0.000000	0.000000
51.724055	11.118177	25.764496	-0.079844	-0.220524	2.144189	0.000000	-0.013948	0.000000	0.000000	-0.000002	0.000000	0.000000
52.165015	11.333784	25.672321	-0.410961	0.428762	2.151628	0.000000	0.047714	0.000000	-0.000001	-0.000002	0.000000	0.000000
52.605975	11.848555	25.013975	-0.760855	1.058540	2.186350	0.000000	0.109919	0.000000	-0.000001	-0.000002	0.000000	0.000000
53.046935	12.686008	23.819413	-1.145510	1.640155	2.248753	0.000000	0.173376	0.000000	-0.000002	-0.000002	0.000000	0.000000
53.487895	13.884405	22.142987	-1.582500	2.147144	2.339546	0.000000	0.238808	0.000000	-0.000003	-0.000002	0.000000	0.000000
53.933855	15.519041	20.035908	-2.096014	2.557778	2.461268	0.000000	0.307359	0.000000	-0.000004	-0.000002	0.000000	0.000000
54.482915	17.623635	17.664852	-1.714382	1.786105	2.609847	0.000000	0.233054	0.000000	-0.000005	-0.000002	0.000000	0.000000
55.031975	19.239772	16.066771	-1.211655	1.141652	2.716432	0.000000	0.154616	0.000000	-0.000006	-0.000002	0.000000	0.000000
55.581035	20.253295	15.127837	-0.623343	0.578516	2.779132	0.000000	0.073435	0.000000	-0.000007	-0.000001	0.000000	0.000000
56.130095	20.592614	14.781174	0.008999	0.056587	2.796835	0.000000	-0.009049	0.000000	-0.000008	-0.000001	0.000000	0.000000
56.428668	20.623709	14.730405	-0.059337	0.074828	2.796315	0.000000	-0.001741	0.000000	-0.000008	-0.000001	0.000000	0.000000
56.762001	20.668674	14.688105	-0.075556	0.052072	2.795736	0.000000	-0.001741	0.000000	-0.000008	-0.000001	0.000000	0.000000
57.095334	20.724451	14.660975	-0.091776	0.029316	2.795156	0.000000	-0.001741	0.000000	-0.000009	-0.000001	0.000000	0.000000
57.429918	20.791311	14.649000	-0.108056	0.006475	2.794574	0.000000	-0.001741	0.000000	-0.000009	-0.000001	0.000000	0.000000
57.727240	20.859868	14.651184	-0.177031	0.024462	2.794057	0.000000	0.005560	0.000000	-0.000010	-0.000001	0.000000	0.000000
58.276300	20.698431	14.905607	0.469315	-0.490576	2.774470	0.000000	-0.076803	0.000000	-0.000010	-0.000001	0.000000	0.000000
58.825360	19.841312	15.741357	1.082510	-1.040557	2.709969	0.000000	-0.157803	0.000000	-0.000011	-0.000001	0.000000	0.000000
59.374420	18.349054	17.217964	1.619242	-1.664654	2.601698	0.000000	-0.236005	0.000000	-0.000011	-0.000000	0.000000	0.000000
59.923480	16.327063	19.440602	2.041600	-2.407320	2.451576	0.000000	-0.310021	0.000000	-0.000011	0.000000	0.000000	0.000000
60.369440	14.744512	21.416059	1.519605	-2.003656	2.328610	0.000000	-0.241738	0.000000	-0.000011	-0.000000	0.000000	0.000000
60.810400	13.606373	22.971450	1.071237	-1.510205	2.236461	0.000000	-0.176605	0.000000	-0.000011	-0.000001	0.000000	0.000000
61.251360	12.840664	24.059579	0.671810	-0.948041	2.172564	0.000000	-0.113484	0.000000	-0.000011	-0.000001	0.000000	0.000000
61.692320	12.412403	24.630936	0.303076	-0.342741	2.136189	0.000000	-0.051655	0.000000	-0.000012	-0.000001	0.000000	0.000000
62.134530	12.302079	24.658981	-0.021741	0.217621	2.126928	0.000000	0.004368	0.000000	-0.000012	-0.000001	0.000000	0.000000
62.431853	12.322196	24.533329	-0.045921	0.204993	2.128227	0.000000	0.004368	0.000000	-0.000013	-0.000001	0.000000	0.000000
62.765186	12.361847	24.401386	-0.073030	0.190835	2.129684	0.000000	0.004368	0.000000	-0.000013	-0.000001	0.000000	0.000000
63.098520	12.419570	24.278882	-0.100138	0.176677	2.131140	0.000000	0.004368	0.000000	-0.000014	-0.000001	0.000000	0.000000
63.433103	12.495683	24.165411	-0.127349	0.162466	2.132602	0.000000	0.004368	0.000000	-0.000014	-0.000001	0.000000	0.000000
63.730426	12.578599	24.072556	-0.120678	0.090796	2.133901	0.000000	-0.000865	0.000000	-0.000015	-0.000001	0.000000	0.000000
64.171386	12.845249	23.727383	-0.486320	0.689003	2.147061	0.000000	0.060605	0.000000	-0.000015	-0.000002	0.000000	0.000000
64.612346	13.442907	22.866499	-0.874180	1.255861	2.187453	0.000000	0.122766	0.000000	-0.000016	-0.000002	0.000000	0.000000
65.053306	14.398879	21.529076	-1.301979	1.765579	2.255538	0.000000	0.186325	0.000000	-0.000017	-0.000003	0.000000	0.000000
65.494266	15.756840	19.775964	-1.789262	2.194964	2.352090	0.000000	0.252006	0.000000	-0.000018	-0.000003	0.000000	0.000000
65.940226	17.601992	17.662128	-2.362982	2.525231	2.479782	0.000000	0.320959	0.000000	-0.000020	-0.000004	0.000000	0.000000
66.489286	19.967446	15.297467	-1.919707	1.806936	2.635643	0.000000	0.245937	0.000000	-0.000022	-0.000003	0.000000	0.000000
67.038346	21.768339	13.646700	-1.340834	1.217344	2.749052	0.000000	0.166552	0.000000	-0.000023	-0.000002	0.000000	0.000000
67.587406	22.877463	12.592248	-0.667252	0.714461	2.817997	0.000000	0.084213	0.000000	-0.000024	-0.000001	0.000000	0.000000
68.136466	23.216477	12.059003	0.053462	0.262468	2.841255	0.000000	0.000380	0.000000	-0.000024	-0.000001	0.000000	0.000000
68.435038	23.224623	11.891484	-0.020072	0.267083	2.843585	0.000000	0.007805	0.000000	-0.000025	-0.000001	0.000000	0.000000
68.768372	23.242790	11.723439	-0.034430	0.237052	2.846187	0.000000	0.007805	0.000000	-0.000025	-0.000001	0.000000	0.000000
69.101705	23.270530	11.575414	-0.048789	0.207022	2.848789	0.000000	0.007805	0.000000	-0.000025	-0.000001	0.000000	0.000000
69.436288	23.308000	11.446968	-0.063201	0.176878	2.851401	0.000000	0.007805	0.000000	-0.000025	-0.000001	0.000000	0.000000
69.733611	23.349390	11.349752	-0.137029	0.179753	2.853722	0.000000	0.015263	0.000000	-0.000025	-0.000001	0.000000	0.000000
70.282671	23.098842	11.379712	0.590649	-0.234641	2.838917	0.000000	-0.069111	0.000000	-0.000026	0.000000	0.000000	0.000000
