#ParticleID	Turn	x[m]	xp	y[m]	yp	z[m]	dE[GeV]# s	beta_x	beta_y	alpha_x	alpha_y	D_x	D_y	D_px	D_py	orbit_x	orbit_px	orbit_y	orbit_py
0.300000	11.801832	25.064399	-0.009956	-0.026693	2.618380	0.000000	-0.000089	0.000000	-0.000002	0.000002	0.000000	0.000000
0.601250	11.815521	25.084105	-0.035485	-0.038721	2.618353	0.000000	-0.000089	0.000000	-0.000001	0.000002	0.000000	0.000000
0.898573	11.844113	25.110660	-0.031635	-0.112170	2.618326	0.000000	-0.006510	0.000000	-0.000001	0.000002	0.000000	0.000000
1.339533	12.024001	24.931016	-0.377859	0.518013	2.631748	0.000000	0.067452	0.000000	0.000000	0.000002	0.000000	0.000000
1.780493	12.515662	24.203910	-0.741347	1.124628	2.677924	0.000000	0.142182	0.000000	0.000001	0.000002	0.000000	0.000000
2.221453	13.341557	22.962425	-1.138705	1.680073	2.757378	0.000000	0.218532	0.000000	0.000002	0.000002	0.000000	0.000000
2.662413	14.539420	21.263047	-1.588087	2.159075	2.871015	0.000000	0.297371	0.000000	0.000003	0.000002	0.000000	0.000000
3.108373	16.184689	19.158179	-2.114309	2.540976	3.021991	0.000000	0.380086	0.000000	0.000004	0.000002	0.000000	0.000000
3.657433	18.294525	16.794036	-1.705576	1.790241	3.205408	0.000000	0.287049	0.000000	0.000005	0.000002	0.000000	0.000000
4.206493	19.886310	15.179849	-1.176370	1.167022	3.336268	0.000000	0.188920	0.000000	0.000006	0.000002	0.000000	0.000000
4.755553	20.847608	14.200644	-0.564071	0.626927	3.412248	0.000000	0.087441	0.000000	0.000007	0.000002	0.000000	0.000000
5.304613	21.110518	13.786673	0.088071	0.131486	3.432001	0.000000	-0.015590	0.000000	0.000008	0.000001	0.000000	0.000000
5.603185	21.095089	13.693296	0.018758	0.145241	3.430023	0.000000	-0.006623	0.000000	0.000008	0.000001	0.000000	0.000000
5.936519	21.087853	13.604754	0.002951	0.120385	3.427815	0.000000	-0.006623	0.000000	0.000009	0.000001	0.000000	0.000000
6.269852	21.091154	13.532783	-0.012856	0.095528	3.425607	0.000000	-0.006623	0.000000	0.000009	0.000001	0.000000	0.000000
6.604435	21.105066	13.477206	-0.028722	0.070579	3.423390	0.000000	-0.006623	0.000000	0.000010	0.000001	0.000000	0.000000
6.901758	21.126338	13.441828	-0.098016	0.083526	3.421420	0.000000	0.002315	0.000000	0.000010	0.000001	0.000000	0.000000
7.450818	20.873957	13.611096	0.554955	-0.393632	3.394492	0.000000	-0.100256	0.000000	0.000011	0.000001	0.000000	0.000000
7.999878	19.921917	14.316571	1.168727	-0.898829	3.311653	0.000000	-0.201049	0.000000	0.000011	0.000001	0.000000	0.000000
8.548938	18.337464	15.608502	1.699946	-1.468047	3.174370	0.000000	-0.298276	0.000000	0.000012	0.000000	0.000000	0.000000
9.097998	16.232516	17.578910	2.111089	-2.141830	2.985081	0.000000	-0.390213	0.000000	0.000012	0.000000	0.000000	0.000000
9.543958	14.590330	19.334608	1.584365	-1.778421	2.829366	0.000000	-0.308517	0.000000	0.000012	0.000000	0.000000	0.000000
9.984918	13.396034	20.712893	1.134309	-1.335332	2.710566	0.000000	-0.230818	0.000000	0.000012	0.000001	0.000000	0.000000
10.425878	12.574385	21.672024	0.736077	-0.831487	2.625417	0.000000	-0.155749	0.000000	0.000012	0.000001	0.000000	0.000000
10.866838	12.087846	22.168359	0.371474	-0.289809	2.572948	0.000000	-0.082453	0.000000	0.000013	0.000001	0.000000	0.000000
11.309048	11.914054	22.178790	0.052950	0.210612	2.552541	0.000000	-0.016355	0.000000	0.000013	0.000002	0.000000	0.000000
11.606371	11.890008	22.057713	0.027924	0.196612	2.547678	0.000000	-0.016355	0.000000	0.000014	0.000002	0.000000	0.000000
12.086371	11.882593	21.879815	-0.012477	0.174009	2.539826	0.000000	-0.016355	0.000000	0.000015	0.000002	0.000000	0.000000
12.566371	11.913964	21.723615	-0.052879	0.151407	2.531975	0.000000	-0.016355	0.000000	0.000015	0.000002	0.000000	0.000000
13.046371	11.984120	21.589114	-0.093280	0.128805	2.524124	0.000000	-0.016355	0.000000	0.000016	0.000002	0.000000	0.000000
13.526371	12.093062	21.476310	-0.133682	0.106202	2.516273	0.000000	-0.016355	0.000000	0.000017	0.000002	0.000000	0.000000
14.007621	12.241224	21.384996	-0.174188	0.083541	2.508401	0.000000	-0.016355	0.000000	0.000018	0.000002	0.000000	0.000000
14.304943	12.352245	21.339481	-0.168928	0.017220	2.503538	0.000000	-0.022493	0.000000	0.000018	0.000002	0.000000	0.000000
14.745903	12.659695	21.090758	-0.530946	0.544684	2.509246	0.000000	0.048410	0.000000	0.000019	0.000002	0.000000	0.000000
15.186863	13.295867	20.386046	-0.917222	1.047365	2.546311	0.000000	0.119865	0.000000	0.000020	0.000002	0.000000	0.000000
15.627823	14.289824	19.257410	-1.345403	1.502392	2.615155	0.000000	0.192685	0.000000	0.000021	0.000003	0.000000	0.000000
16.068783	15.686978	17.756201	-1.835052	1.889062	2.716563	0.000000	0.267700	0.000000	0.000022	0.000004	0.000000	0.000000
16.514743	17.574826	15.929226	-2.413298	2.190522	2.853383	0.000000	0.346225	0.000000	0.000024	0.000004	0.000000	0.000000
17.063803	19.999635	13.889337	-1.976847	1.546645	3.019759	0.000000	0.258927	0.000000	0.000026	0.000003	0.000000	0.000000
17.612863	21.865190	12.492222	-1.400762	1.012933	3.136869	0.000000	0.167037	0.000000	0.000028	0.000002	0.000000	0.000000
18.161923	23.039718	11.638366	-0.725733	0.551369	3.202638	0.000000	0.072183	0.000000	0.000029	0.000002	0.000000	0.000000
18.710983	23.440255	11.266951	0.000557	0.129079	3.215898	0.000000	-0.023951	0.000000	0.000030	0.000001	0.000000	0.000000
19.009556	23.480302	11.180408	-0.073457	0.131344	3.211255	0.000000	-0.015550	0.000000	0.000030	0.000001	0.000000	0.000000
19.342889	23.534031	11.102955	-0.087730	0.101016	3.206072	0.000000	-0.015550	0.000000	0.000030	0.000001	0.000000	0.000000
19.676223	23.597275	11.045721	-0.102003	0.070687	3.200888	0.000000	-0.015550	0.000000	0.000030	0.000001	0.000000	0.000000
20.010806	23.670619	11.008468	-0.233607	0.094788	3.195705	0.000000	0.000283	0.000000	0.000031	0.000001	0.000000	0.000000
20.308129	23.813470	10.960205	-0.309057	0.096167	3.195789	0.000000	0.008631	0.000000	0.000031	0.000001	0.000000	0.000000
20.857189	23.742114	11.076444	0.438248	-0.309122	3.174320	0.000000	-0.086718	0.000000	0.000031	-0.000000	0.000000	0.000000
21.406249	22.862338	11.647146	1.154597	-0.736429	3.100845	0.000000	-0.180529	0.000000	0.000031	-0.000001	0.000000	0.000000
21.955309	21.236285	12.712961	1.789391	-1.216191	2.976666	0.000000	-0.271138	0.000000	0.000030	-0.000002	0.000000	0.000000
22.504369	18.978811	14.349804	2.297792	-1.782578	2.803988	0.000000	-0.356938	0.000000	0.000028	-0.000003	0.000000	0.000000
22.950329	17.199595	15.819522	1.705919	-1.499144	2.662095	0.000000	-0.279759	0.000000	0.000027	-0.000002	0.000000	0.000000
23.391289	15.924500	16.991421	1.196683	-1.148351	2.555049	0.000000	-0.206222	0.000000	0.000026	-0.000002	0.000000	0.000000
23.832249	15.072797	17.829639	0.742119	-0.745309	2.479881	0.000000	-0.135033	0.000000	0.000026	-0.000001	0.000000	0.000000
24.273209	14.605572	18.296038	0.321461	-0.308356	2.435736	0.000000	-0.065381	0.000000	0.000026	-0.000000	0.000000	0.000000
24.715418	14.501603	18.369153	-0.049043	0.097522	2.422108	0.000000	-0.002413	0.000000	0.000026	0.000000	0.000000	0.000000
25.012741	14.536877	18.316020	-0.069595	0.081182	2.421390	0.000000	-0.002413	0.000000	0.000026	0.000000	0.000000	0.000000
25.346075	14.590954	18.268005	-0.092636	0.062863	2.420586	0.000000	-0.002413	0.000000	0.000026	0.000000	0.000000	0.000000
25.679408	14.660392	18.232203	-0.115678	0.044544	2.419781	0.000000	-0.002413	0.000000	0.000026	0.000000	0.000000	0.000000
26.013991	14.745239	18.208917	-0.019182	-0.121563	2.418949	0.000000	-0.022037	0.000000	0.000026	0.000000	0.000000	0.000000
26.311314	14.762643	18.286130	-0.003160	-0.182965	2.412397	0.000000	-0.027952	0.000000	0.000026	0.000000	0.000000	0.000000
26.752274	14.947289	18.249211	-0.417164	0.266371	2.415175	0.000000	0.040564	0.000000	0.000026	0.000001	0.000000	0.000000
27.193234	15.504046	17.819864	-0.850227	0.703588	2.448239	0.000000	0.109543	0.000000	0.000027	0.000001	0.000000	0.000000
27.634194	16.458350	17.017624	-1.322134	1.108791	2.511965	0.000000	0.179768	0.000000	0.000028	0.000002	0.000000	0.000000
28.075154	17.853802	15.878993	-1.854446	1.463545	2.607078	0.000000	0.252042	0.000000	0.000029	0.000003	0.000000	0.000000
28.521114	19.778395	14.438622	-2.476457	1.752621	2.736266	0.000000	0.327629	0.000000	0.000030	0.000004	0.000000	0.000000
29.070174	22.224544	12.833879	-1.952325	1.187339	2.893500	0.000000	0.244274	0.000000	0.000032	0.000003	0.000000	0.000000
29.619234	24.015538	11.800080	-1.290290	0.706628	3.003709	0.000000	0.156586	0.000000	0.000033	0.000002	0.000000	0.000000
30.168294	25.024868	11.263589	-0.537115	0.276248	3.064938	0.000000	0.066120	0.000000	0.000034	0.000000	0.000000	0.000000
30.717354	25.181242	11.186192	0.253999	-0.134454	3.076101	0.000000	-0.025518	0.000000	0.000034	-0.000001	0.000000	0.000000
31.015927	25.072511	11.257091	0.175946	-0.132222	3.070882	0.000000	-0.017483	0.000000	0.000033	-0.000001	0.000000	0.000000
31.349260	24.959782	11.355281	0.162240	-0.162351	3.065054	0.000000	-0.017483	0.000000	0.000033	-0.000001	0.000000	0.000000
31.682593	24.856190	11.473558	0.148534	-0.192479	3.059227	0.000000	-0.017483	0.000000	0.000033	-0.000001	0.000000	0.000000
32.017177	24.761400	11.612477	0.134776	-0.222721	3.053377	0.000000	-0.017483	0.000000	0.000033	-0.000001	0.000000	0.000000
32.314499	24.684891	11.752907	0.058071	-0.218895	3.048179	0.000000	-0.009521	0.000000	0.000033	-0.000000	0.000000	0.000000
32.863559	24.198151	12.232446	0.823177	-0.659642	3.018083	0.000000	-0.099948	0.000000	0.000032	-0.000001	0.000000	0.000000
33.412619	22.898344	13.218785	1.530138	-1.147374	2.938752	0.000000	-0.188602	0.000000	0.000031	-0.000003	0.000000	0.000000
33.961679	20.877283	14.782178	2.129017	-1.716831	2.811593	0.000000	-0.273910	0.000000	0.000029	-0.000003	0.000000	0.000000
34.510739	18.277724	17.033983	2.577513	-2.408575	2.638861	0.000000	-0.354361	0.000000	0.000027	-0.000004	0.000000	0.000000
34.956699	16.256398	19.048180	1.971252	-2.089110	2.497167	0.000000	-0.281463	0.000000	0.000025	-0.000004	0.000000	0.000000
35.397659	14.749038	20.714492	1.460073	-1.675335	2.388429	0.000000	-0.212199	0.000000	0.000024	-0.000003	0.000000	0.000000
35.838619	13.661490	21.980752	1.015601	-1.185334	2.309673	0.000000	-0.145351	0.000000	0.000023	-0.000002	0.000000	0.000000
36.279579	12.944066	22.789346	0.617528	-0.641401	2.260001	0.000000	-0.080159	0.000000	0.000022	-0.000002	0.000000	0.000000
36.721789	12.563294	23.103797	0.278367	-0.124985	2.238820	0.000000	-0.021370	0.000000	0.000021	-0.000001	0.000000	0.000000
37.019112	12.405346	23.182005	0.252867	-0.138055	2.232467	0.000000	-0.021370	0.000000	0.000021	-0.000001	0.000000	0.000000
37.352445	12.246298	23.278926	0.224278	-0.152708	2.225344	0.000000	-0.021370	0.000000	0.000020	-0.000001	0.000000	0.000000
37.685779	12.106308	23.385616	0.195690	-0.167361	2.218221	0.000000	-0.021370	0.000000	0.000020	-0.000001	0.000000	0.000000
38.020362	11.984960	23.502529	0.166995	-0.182069	2.211072	0.000000	-0.021370	0.000000	0.000019	-0.000001	0.000000	0.000000
38.317684	11.893239	23.614681	0.170656	-0.253039	2.204718	0.000000	-0.026775	0.000000	0.000019	-0.000001	0.000000	0.000000
38.758644	11.894322	23.576261	-0.173121	0.339835	2.206834	0.000000	0.036379	0.000000	0.000018	-0.000001	0.000000	0.000000
39.199604	12.200917	23.019821	-0.524807	0.917247	2.236863	0.000000	0.099947	0.000000	0.000018	-0.000001	0.000000	0.000000
39.640564	12.827032	21.970676	-0.900470	1.452926	2.295147	0.000000	0.164653	0.000000	0.000018	-0.000000	0.000000	0.000000
40.081524	13.801272	20.476564	-1.317273	1.922497	2.382349	0.000000	0.231235	0.000000	0.000018	0.000000	0.000000	0.000000
40.527484	15.185725	18.582883	-1.798087	2.305884	2.500935	0.000000	0.300855	0.000000	0.000018	0.000001	0.000000	0.000000
41.076544	16.952300	16.454770	-1.400320	1.592916	2.645601	0.000000	0.225329	0.000000	0.000019	0.000000	0.000000	0.000000
41.625604	18.224847	15.043055	-0.903642	0.993408	2.747639	0.000000	0.145805	0.000000	0.000019	-0.000000	0.000000	0.000000
42.174664	18.913478	14.247187	-0.343135	0.464658	2.805238	0.000000	0.063696	0.000000	0.000018	-0.000001	0.000000	0.000000
42.723724	18.969553	14.010477	0.241610	-0.030995	2.817378	0.000000	-0.019543	0.000000	0.000018	-0.000001	0.000000	0.000000
43.022297	18.859743	14.013491	0.175733	-0.015704	2.813741	0.000000	-0.012183	0.000000	0.000017	-0.000001	0.000000	0.000000
43.502297	18.703633	14.045013	0.149496	-0.049965	2.807893	0.000000	-0.012183	0.000000	0.000016	-0.000001	0.000000	0.000000
43.982297	18.572711	14.109425	0.123259	-0.084227	2.802046	0.000000	-0.012183	0.000000	0.000016	-0.000001	0.000000	0.000000
44.462297	18.466976	14.206728	0.097022	-0.118488	2.796199	0.000000	-0.012183	0.000000	0.000015	-0.000001	0.000000	0.000000
44.942297	18.386429	14.336921	0.070785	-0.152749	2.790351	0.000000	-0.012183	0.000000	0.000014	-0.000001	0.000000	0.000000
45.423547	18.331185	14.500294	-0.046343	-0.115256	2.784506	0.000000	0.001613	0.000000	0.000014	-0.000001	0.000000	0.000000
45.720870	18.363576	14.575007	-0.110573	-0.097956	2.784986	0.000000	0.008889	0.000000	0.000013	-0.000001	0.000000	0.000000
46.269930	18.175805	14.964389	0.450534	-0.615409	2.767302	0.000000	-0.073211	0.000000	0.000012	-0.000002	0.000000	0.000000
46.818990	17.385779	15.942590	0.979817	-1.176698	2.704832	0.000000	-0.154013	0.000000	0.000011	-0.000002	0.000000	0.000000
47.368050	16.049301	17.579284	1.439891	-1.821799	2.598682	0.000000	-0.232083	0.000000	0.000010	-0.000002	0.000000	0.000000
47.917110	14.260774	19.991049	1.798259	-2.596664	2.450736	0.000000	-0.306036	0.000000	0.000009	-0.000003	0.000000	0.000000
48.363070	12.869064	22.135214	1.333506	-2.191099	2.329546	0.000000	-0.237751	0.000000	0.000007	-0.000003	0.000000	0.000000
48.804030	11.873206	23.851886	0.933447	-1.687118	2.239165	0.000000	-0.172572	0.000000	0.000006	-0.000002	0.000000	0.000000
49.244990	11.210099	25.088410	0.576036	-1.106375	2.177065	0.000000	-0.109358	0.000000	0.000005	-0.000002	0.000000	0.000000
49.685950	10.849449	25.788527	0.244941	-0.475293	2.142539	0.000000	-0.047389	0.000000	0.000004	-0.000002	0.000000	0.000000
50.128160	10.774900	25.920096	-0.048657	0.113805	2.135205	0.000000	0.008804	0.000000	0.000003	-0.000002	0.000000	0.000000
50.425482	10.812057	25.855877	-0.076316	0.102186	2.137823	0.000000	0.008804	0.000000	0.000003	-0.000002	0.000000	0.000000
50.758816	10.873271	25.792095	-0.107325	0.089159	2.140759	0.000000	0.008804	0.000000	0.000002	-0.000002	0.000000	0.000000
51.092149	10.955158	25.736998	-0.138335	0.076132	2.143694	0.000000	0.008804	0.000000	0.000001	-0.000002	0.000000	0.000000
51.426732	11.057917	25.690949	-0.079751	-0.145361	2.146618	0.000000	-0.008611	0.000000	0.000001	-0.000002	0.000000	0.000000
51.724055	11.113385	25.780901	-0.079557	-0.220401	2.144059	0.000000	-0.013869	0.000000	0.000000	-0.000002	0.000000	0.000000
52.165015	11.328690	25.688426	-0.410559	0.429316	2.151531	0.000000	0.047790	0.000000	-0.000001	-0.000002	0.000000	0.000000
52.605975	11.843048	25.029410	-0.760319	1.059499	2.186287	0.000000	0.109993	0.000000	-0.000002	-0.000002	0.000000	0.000000
53.046935	12.679961	23.833838	-1.144815	1.641476	2.248722	0.000000	0.173450	0.000000	-0.000003	-0.000002	0.000000	0.000000
53.487895	13.877663	22.156108	-1.581614	2.148768	2.339548	0.000000	0.238881	0.000000	-0.000003	-0.000002	0.000000	0.000000
53.933855	15.511409	20.047473	-2.094896	2.559631	2.461302	0.000000	0.307432	0.000000	-0.000004	-0.000002	0.000000	0.000000
54.482915	17.614886	17.674641	-1.713477	1.787504	2.609922	0.000000	0.233126	0.000000	-0.000006	-0.000002	0.000000	0.000000
55.031975	19.230174	16.075226	-1.211026	1.142697	2.716545	0.000000	0.154684	0.000000	-0.000007	-0.000002	0.000000	0.000000
55.581035	20.243179	15.135304	-0.623034	0.579283	2.779282	0.000000	0.073499	0.000000	-0.000008	-0.000002	0.000000	0.000000
56.130095	20.582347	14.787927	0.008965	0.057129	2.797018	0.000000	-0.008990	0.000000	-0.000009	-0.000001	0.000000	0.000000
56.428668	20.613449	14.736822	-0.059352	0.075394	2.796517	0.000000	-0.001681	0.000000	-0.000009	-0.000001	0.000000	0.000000
56.762001	20.658427	14.694141	-0.075580	0.052647	2.795957	0.000000	-0.001681	0.000000	-0.000010	-0.000001	0.000000	0.000000
57.095334	20.714222	14.666626	-0.091807	0.029899	2.795397	0.000000	-0.001681	0.000000	-0.000010	-0.000001	0.000000	0.000000
57.429918	20.781107	14.654258	-0.108096	0.007066	2.794835	0.000000	-0.001681	0.000000	-0.000011	-0.000001	0.000000	0.000000
57.727240	20.849689	14.656089	-0.177052	0.025073	2.794335	0.000000	0.005620	0.000000	-0.000011	-0.000001	0.000000	0.000000
58.276300	20.688461	14.909914	0.468956	-0.490092	2.774780	0.000000	-0.076752	0.000000	-0.000012	-0.000001	0.000000	0.000000
58.825360	19.831912	15.745186	1.081838	-1.040164	2.710304	0.000000	-0.157763	0.000000	-0.000012	-0.000001	0.000000	0.000000
59.374420	18.340543	17.221399	1.618306	-1.664326	2.602051	0.000000	-0.235976	0.000000	-0.000013	-0.000000	0.000000	0.000000
59.923480	16.319696	19.443701	2.040464	-2.407033	2.451943	0.000000	-0.310003	0.000000	-0.000013	0.000000	0.000000	0.000000
60.369440	14.738053	21.418844	1.518699	-2.003240	2.328986	0.000000	-0.241711	0.000000	-0.000013	-0.000000	0.000000	0.000000
60.810400	13.600627	22.973818	1.070517	-1.509679	2.236852	0.000000	-0.176568	0.000000	-0.000013	-0.000001	0.000000	0.000000
61.251360	12.835483	24.061443	0.671244	-0.947429	2.172972	0.000000	-0.113437	0.000000	-0.000013	-0.000001	0.000000	0.000000
61.692320	12.407663	24.632233	0.302638	-0.342072	2.136621	0.000000	-0.051597	0.000000	-0.000014	-0.000001	0.000000	0.000000
62.134530	12.297677	24.659672	-0.022082	0.218315	2.127388	0.000000	0.004437	0.000000	-0.000014	-0.000002	0.000000	0.000000
62.431853	12.318000	24.533607	-0.046271	0.205683	2.128708	0.000000	0.004437	0.000000	-0.000015	-0.000002	0.000000	0.000000
62.765186	12.357886	24.401206	-0.073389	0.191522	2.130187	0.000000	0.004437	0.000000	-0.000015	-0.000002	0.000000	0.000000
63.098520	12.415852	24.278245	-0.100508	0.177360	2.131667	0.000000	0.004437	0.000000	-0.000016	-0.000002	0.000000	0.000000
63.433103	12.492216	24.164318	-0.127728	0.163145	2.133152	0.000000	0.004437	0.000000	-0.000016	-0.000002	0.000000	0.000000
63.730426	12.575361	24.071060	-0.121074	0.091474	2.134471	0.000000	-0.000798	0.000000	-0.000017	-0.000002	0.000000	0.000000
64.171386	12.842331	23.725311	-0.486653	0.689624	2.147664	0.000000	0.060687	0.000000	-0.000018	-0.000002	0.000000	0.000000
64.612346	13.440262	22.863916	-0.874466	1.256397	2.188095	0.000000	0.122864	0.000000	-0.000019	-0.000002	0.000000	0.000000
65.053306	14.396470	21.526067	-1.302231	1.766005	2.256227	0.000000	0.186440	0.000000	-0.000020	-0.000003	0.000000	0.000000
65.494266	15.754642	19.772635	-1.789491	2.195261	2.352834	0.000000	0.252140	0.000000	-0.000021	-0.000003	0.000000	0.000000
65.940226	17.599992	17.658598	-2.363199	2.525384	2.480591	0.000000	0.321113	0.000000	-0.000023	-0.000004	0.000000	0.000000
66.489286	19.965747	15.293744	-1.920035	1.807138	2.636529	0.000000	0.246063	0.000000	-0.000025	-0.000003	0.000000	0.000000
67.038346	21.767050	13.642721	-1.341250	1.217611	2.749999	0.000000	0.166648	0.000000	-0.000026	-0.000002	0.000000	0.000000
67.587406	22.876666	12.587932	-0.667726	0.714812	2.818989	0.000000	0.084278	0.000000	-0.000028	-0.000002	0.000000	0.000000
68.136466	23.216218	12.054245	0.052962	0.262926	2.842274	0.000000	0.000413	0.000000	-0.000028	-0.000001	0.000000	0.000000
68.435038	23.224663	11.886465	-0.020573	0.267513	2.844615	0.000000	0.007841	0.000000	-0.000028	-0.000001	0.000000	0.000000
68.768372	23.243164	11.718139	-0.034931	0.237463	2.847229	0.000000	0.007841	0.000000	-0.000029	-0.000001	0.000000	0.000000
69.101705	23.271238	11.569847	-0.049290	0.207413	2.849842	0.000000	0.007841	0.000000	-0.000029	-0.000001	0.000000	0.000000
69.436288	23.309043	11.441145	-0.063703	0.177251	2.852466	0.000000	0.007841	0.000000	-0.000029	-0.000001	0.000000	0.000000
69.733611	23.350732	11.343713	-0.137536	0.180093	2.854797	0.000000	0.015302	0.000000	-0.000029	-0.000001	0.000000	0.000000
70.282671	23.100712	11.373205	0.590201	-0.234124	2.840005	0.000000	-0.069107	0.000000	-0.000029	0.000000	0.000000	0.000000
