#ParticleID	Turn	x[m]	xp	y[m]	yp	z[m]	dE[GeV]# s	beta_x	beta_y	alpha_x	alpha_y	D_x	D_y	D_px	D_py	orbit_x	orbit_px	orbit_y	orbit_py
0.300000	11.831184	24.950408	-0.013263	-0.027759	2.618270	0.000000	-0.000048	0.000000	0.000000	0.000000	0.000000	0.000000
0.601250	11.846846	24.970772	-0.038729	-0.039842	2.618255	0.000000	-0.000048	0.000000	0.000000	0.000000	0.000000	0.000000
0.898573	11.877350	24.998010	-0.034738	-0.113070	2.618241	0.000000	-0.006469	0.000000	0.000000	0.000000	0.000000	0.000000
1.339533	12.060332	24.820471	-0.381800	0.514156	2.631682	0.000000	0.067491	0.000000	0.000000	0.000000	0.000000	0.000000
1.780493	12.555901	24.098011	-0.746305	1.117989	2.677876	0.000000	0.142220	0.000000	0.000000	0.000000	0.000000	0.000000
2.221453	13.386699	22.863502	-1.144908	1.670954	2.757347	0.000000	0.218569	0.000000	0.000000	0.000000	0.000000	0.000000
2.662413	14.590681	21.173111	-1.595817	2.147891	2.871001	0.000000	0.297407	0.000000	0.000001	0.000000	0.000000	0.000000
3.108373	16.243662	19.078958	-2.123935	2.528232	3.021994	0.000000	0.380122	0.000000	0.000001	0.000000	0.000000	0.000000
3.657433	18.363288	16.727028	-1.713674	1.780611	3.205432	0.000000	0.287085	0.000000	0.000001	0.000000	0.000000	0.000000
4.206493	19.962858	15.122028	-1.182368	1.159820	3.336312	0.000000	0.188955	0.000000	0.000001	0.000000	0.000000	0.000000
4.755553	20.929386	14.149640	-0.567545	0.621639	3.412311	0.000000	0.087474	0.000000	0.000001	0.000000	0.000000	0.000000
5.304613	21.194603	13.740602	0.087366	0.127737	3.432083	0.000000	-0.015559	0.000000	0.000001	0.000000	0.000000	0.000000
5.603185	21.179711	13.649547	0.017888	0.141328	3.430115	0.000000	-0.006592	0.000000	0.000001	0.000000	0.000000	0.000000
5.936519	21.173034	13.563632	0.002144	0.116419	3.427917	0.000000	-0.006592	0.000000	0.000001	0.000000	0.000000	0.000000
6.269852	21.176852	13.494322	-0.013599	0.091510	3.425720	0.000000	-0.006592	0.000000	0.000001	0.000000	0.000000	0.000000
6.604435	21.191239	13.441452	-0.029401	0.066508	3.423514	0.000000	-0.006592	0.000000	0.000001	0.000000	0.000000	0.000000
6.901758	21.212898	13.408509	-0.098869	0.079324	3.421554	0.000000	0.002348	0.000000	0.000001	0.000000	0.000000	0.000000
7.450818	20.959858	13.581893	0.557001	-0.396972	3.394643	0.000000	-0.100228	0.000000	0.000001	0.000000	0.000000	0.000000
7.999878	20.004036	14.290672	1.173528	-0.901544	3.311818	0.000000	-0.201027	0.000000	0.000001	0.000000	0.000000	0.000000
8.548938	18.412946	15.585332	1.707162	-1.470331	3.174547	0.000000	-0.298259	0.000000	0.000001	0.000000	0.000000	0.000000
9.097998	16.298975	17.558087	2.120211	-2.143846	2.985265	0.000000	-0.390201	0.000000	0.000001	-0.000000	0.000000	0.000000
9.543958	14.649559	19.315981	1.591512	-1.781314	2.829557	0.000000	-0.308500	0.000000	0.000001	-0.000000	0.000000	0.000000
9.984918	13.449701	20.697153	1.139823	-1.338962	2.710766	0.000000	-0.230797	0.000000	0.000001	0.000000	0.000000	0.000000
10.425878	12.623815	21.659750	0.740210	-0.835688	2.625627	0.000000	-0.155722	0.000000	0.000001	0.000000	0.000000	0.000000
10.866838	12.134168	22.159973	0.374415	-0.294391	2.573171	0.000000	-0.082421	0.000000	0.000001	0.000000	0.000000	0.000000
11.309048	11.958251	22.174548	0.054945	0.205863	2.552780	0.000000	-0.016318	0.000000	0.000001	0.000000	0.000000	0.000000
11.606371	11.932993	22.056288	0.030007	0.191886	2.547928	0.000000	-0.016318	0.000000	0.000001	0.000000	0.000000	0.000000
12.086371	11.923511	21.882908	-0.010254	0.169322	2.540095	0.000000	-0.016318	0.000000	0.000001	0.000000	0.000000	0.000000
12.566371	11.952680	21.731189	-0.050515	0.146758	2.532262	0.000000	-0.016318	0.000000	0.000002	0.000000	0.000000	0.000000
13.046371	12.020499	21.601132	-0.090775	0.124195	2.524429	0.000000	-0.016318	0.000000	0.000002	0.000000	0.000000	0.000000
13.526371	12.126969	21.492736	-0.131036	0.101631	2.516596	0.000000	-0.016318	0.000000	0.000002	0.000000	0.000000	0.000000
14.007621	12.272518	21.405803	-0.171402	0.079008	2.508743	0.000000	-0.016318	0.000000	0.000002	0.000000	0.000000	0.000000
14.304943	12.381856	21.362977	-0.165977	0.012644	2.503891	0.000000	-0.022459	0.000000	0.000002	0.000000	0.000000	0.000000
14.745903	12.686967	21.117979	-0.528574	0.540842	2.509617	0.000000	0.048454	0.000000	0.000002	0.000000	0.000000	0.000000
15.186863	13.321260	20.416267	-0.915320	1.044431	2.546705	0.000000	0.119919	0.000000	0.000002	0.000000	0.000000	0.000000
15.627823	14.313714	19.289768	-1.343884	1.500500	2.615576	0.000000	0.192750	0.000000	0.000002	0.000000	0.000000	0.000000
16.068783	15.709670	17.789736	-1.833846	1.888297	2.717016	0.000000	0.267775	0.000000	0.000002	0.000000	0.000000	0.000000
16.514743	17.596560	15.962921	-2.412350	2.190927	2.853874	0.000000	0.346313	0.000000	0.000002	0.000000	0.000000	0.000000
17.063803	20.019733	13.922984	-1.974837	1.546331	3.020295	0.000000	0.258999	0.000000	0.000002	0.000000	0.000000	0.000000
17.612863	21.882558	12.526616	-1.397831	1.011877	3.137441	0.000000	0.167090	0.000000	0.000003	0.000000	0.000000	0.000000
18.161923	23.053453	11.674360	-0.722090	0.549496	3.203235	0.000000	0.072218	0.000000	0.000003	0.000000	0.000000	0.000000
18.710983	23.449713	11.305509	0.004656	0.126255	3.216510	0.000000	-0.023936	0.000000	0.000003	0.000000	0.000000	0.000000
19.009556	23.487332	11.220555	-0.069385	0.128743	3.211872	0.000000	-0.015532	0.000000	0.000003	0.000000	0.000000	0.000000
19.342889	23.538342	11.144793	-0.083646	0.098543	3.206695	0.000000	-0.015532	0.000000	0.000003	0.000000	0.000000	0.000000
19.676223	23.598860	11.089164	-0.097906	0.068343	3.201518	0.000000	-0.015532	0.000000	0.000003	0.000000	0.000000	0.000000
20.010806	23.669457	11.053436	-0.229491	0.092796	3.196341	0.000000	0.000305	0.000000	0.000003	0.000000	0.000000	0.000000
20.308129	23.809855	11.006322	-0.304924	0.094422	3.196432	0.000000	0.008656	0.000000	0.000003	0.000000	0.000000	0.000000
20.857189	23.734048	11.125195	0.442173	-0.312202	3.174971	0.000000	-0.086714	0.000000	0.000003	-0.000000	0.000000	0.000000
21.406249	22.850205	11.700107	1.158037	-0.741064	3.101492	0.000000	-0.180546	0.000000	0.000003	-0.000000	0.000000	0.000000
21.955309	21.220755	12.772009	1.792103	-1.222710	2.977298	0.000000	-0.271175	0.000000	0.000003	-0.000000	0.000000	0.000000
22.504369	18.960795	14.417250	2.299584	-1.791446	2.804592	0.000000	-0.356995	0.000000	0.000003	-0.000000	0.000000	0.000000
22.950329	17.179910	15.894204	1.707889	-1.506434	2.662677	0.000000	-0.279801	0.000000	0.000002	-0.000000	0.000000	0.000000
23.391289	15.902968	17.071714	1.198920	-1.153737	2.555615	0.000000	-0.206249	0.000000	0.000002	-0.000000	0.000000	0.000000
23.832249	15.049137	17.913749	0.744726	-0.748546	2.480438	0.000000	-0.135045	0.000000	0.000002	-0.000000	0.000000	0.000000
24.273209	14.579408	18.381997	0.324557	-0.309297	2.436290	0.000000	-0.065380	0.000000	0.000002	-0.000000	0.000000	0.000000
24.715418	14.472433	18.454907	-0.045381	0.098700	2.422666	0.000000	-0.002400	0.000000	0.000002	0.000000	0.000000	0.000000
25.012741	14.505540	18.401053	-0.065968	0.082432	2.421952	0.000000	-0.002400	0.000000	0.000002	0.000000	0.000000	0.000000
25.346075	14.557212	18.352177	-0.089048	0.064194	2.421152	0.000000	-0.002400	0.000000	0.000002	0.000000	0.000000	0.000000
25.679408	14.624270	18.315461	-0.112127	0.045956	2.420352	0.000000	-0.002400	0.000000	0.000002	0.000000	0.000000	0.000000
26.013991	14.706755	18.291204	-0.015983	-0.120738	2.419524	0.000000	-0.022029	0.000000	0.000002	-0.000000	0.000000	0.000000
26.311314	14.722271	18.367904	-0.000102	-0.182272	2.412975	0.000000	-0.027946	0.000000	0.000002	-0.000000	0.000000	0.000000
26.752274	14.903774	18.329397	-0.413068	0.269265	2.415758	0.000000	0.040585	0.000000	0.000002	0.000000	0.000000	0.000000
27.193234	15.456394	17.896571	-0.844906	0.708552	2.448835	0.000000	0.109578	0.000000	0.000002	0.000000	0.000000	0.000000
27.634194	16.405379	17.089121	-1.315346	1.115599	2.512581	0.000000	0.179820	0.000000	0.000002	0.000000	0.000000	0.000000
28.075154	17.794085	15.943784	-1.845880	1.471888	2.607722	0.000000	0.252109	0.000000	0.000003	0.000000	0.000000	0.000000
28.521114	19.710092	14.495424	-2.465702	1.762121	2.736945	0.000000	0.327713	0.000000	0.000003	0.000000	0.000000	0.000000
29.070174	22.145341	12.881501	-1.943349	1.194658	2.894221	0.000000	0.244335	0.000000	0.000003	0.000000	0.000000	0.000000
29.619234	23.927751	11.840617	-1.283727	0.712288	3.004458	0.000000	0.156624	0.000000	0.000003	0.000000	0.000000	0.000000
30.168294	24.931420	11.298632	-0.533430	0.280653	3.065702	0.000000	0.066134	0.000000	0.000003	0.000000	0.000000	0.000000
30.717354	25.085455	11.216941	0.254547	-0.130992	3.076866	0.000000	-0.025529	0.000000	0.000003	-0.000000	0.000000	0.000000
31.015927	24.976272	11.285691	0.176677	-0.128578	3.071644	0.000000	-0.017490	0.000000	0.000003	-0.000000	0.000000	0.000000
31.349260	24.863075	11.381418	0.162915	-0.158602	3.065814	0.000000	-0.017490	0.000000	0.000003	-0.000000	0.000000	0.000000
31.682593	24.759053	11.497161	0.149152	-0.188626	3.059984	0.000000	-0.017490	0.000000	0.000003	-0.000000	0.000000	0.000000
32.017177	24.663867	11.633466	0.135338	-0.218763	3.054132	0.000000	-0.017490	0.000000	0.000003	-0.000000	0.000000	0.000000
32.314499	24.587039	11.771515	0.058822	-0.214788	3.048932	0.000000	-0.009524	0.000000	0.000003	-0.000000	0.000000	0.000000
32.863559	24.101262	12.246733	0.820683	-0.655833	3.018827	0.000000	-0.099975	0.000000	0.000003	-0.000000	0.000000	0.000000
33.412619	22.805906	13.228928	1.524575	-1.143592	2.939474	0.000000	-0.188652	0.000000	0.000003	-0.000000	0.000000	0.000000
33.961679	20.792470	14.788060	2.120778	-1.712807	2.812279	0.000000	-0.273984	0.000000	0.000002	-0.000000	0.000000	0.000000
34.510739	18.203172	17.035181	2.567180	-2.404021	2.639500	0.000000	-0.354455	0.000000	0.000002	-0.000000	0.000000	0.000000
34.956699	16.190028	19.045074	1.963173	-2.084050	2.497765	0.000000	-0.281542	0.000000	0.000002	-0.000000	0.000000	0.000000
35.397659	14.688948	20.706785	1.453861	-1.670005	2.388995	0.000000	-0.212263	0.000000	0.000002	-0.000000	0.000000	0.000000
35.838619	13.606163	21.968314	1.010971	-1.179976	2.310212	0.000000	-0.145401	0.000000	0.000002	-0.000000	0.000000	0.000000
36.279579	12.892206	22.772260	0.614269	-0.636260	2.260520	0.000000	-0.080195	0.000000	0.000002	-0.000000	0.000000	0.000000
36.721789	12.513767	23.082347	0.276213	-0.120252	2.239326	0.000000	-0.021395	0.000000	0.000002	-0.000000	0.000000	0.000000
37.019112	12.357121	23.157739	0.250640	-0.133319	2.232965	0.000000	-0.021395	0.000000	0.000002	-0.000000	0.000000	0.000000
37.352445	12.199584	23.251502	0.221971	-0.147969	2.225833	0.000000	-0.021395	0.000000	0.000002	-0.000000	0.000000	0.000000
37.685779	12.061160	23.355031	0.193301	-0.162619	2.218702	0.000000	-0.021395	0.000000	0.000002	-0.000000	0.000000	0.000000
38.020362	11.941438	23.468770	0.164524	-0.177323	2.211543	0.000000	-0.021395	0.000000	0.000002	-0.000000	0.000000	0.000000
38.317684	11.851208	23.578100	0.168014	-0.248210	2.205182	0.000000	-0.026802	0.000000	0.000002	-0.000000	0.000000	0.000000
38.758644	11.854203	23.535863	-0.174833	0.343628	2.207288	0.000000	0.036363	0.000000	0.000001	-0.000000	0.000000	0.000000
39.199604	12.161928	22.976600	-0.525667	0.919832	2.237312	0.000000	0.099943	0.000000	0.000001	-0.000000	0.000000	0.000000
39.640564	12.788442	21.925754	-0.900518	1.454185	2.295597	0.000000	0.164661	0.000000	0.000001	-0.000000	0.000000	0.000000
40.081524	13.762368	20.431140	-1.316510	1.922373	2.382805	0.000000	0.231254	0.000000	0.000001	0.000000	0.000000	0.000000
40.527484	15.145764	18.538193	-1.796474	2.304372	2.501403	0.000000	0.300887	0.000000	0.000001	0.000000	0.000000	0.000000
41.076544	16.911400	16.411098	-1.400234	1.592562	2.646082	0.000000	0.225345	0.000000	0.000001	-0.000000	0.000000	0.000000
41.625604	18.184698	14.999152	-0.905088	0.994187	2.748124	0.000000	0.145806	0.000000	0.000001	-0.000000	0.000000	0.000000
42.174664	18.875716	14.201785	-0.346011	0.466625	2.805719	0.000000	0.063681	0.000000	0.000001	-0.000000	0.000000	0.000000
42.723724	18.935647	13.962202	0.237506	-0.027700	2.817846	0.000000	-0.019574	0.000000	0.000001	-0.000000	0.000000	0.000000
43.022297	18.828239	13.963344	0.171706	-0.012605	2.814200	0.000000	-0.012212	0.000000	0.000001	-0.000000	0.000000	0.000000
43.502297	18.675999	13.991948	0.145461	-0.046986	2.808338	0.000000	-0.012212	0.000000	0.000001	-0.000000	0.000000	0.000000
43.982297	18.548955	14.053558	0.119216	-0.081368	2.802477	0.000000	-0.012212	0.000000	0.000001	-0.000000	0.000000	0.000000
44.462297	18.447105	14.148174	0.092970	-0.115749	2.796615	0.000000	-0.012212	0.000000	0.000001	-0.000000	0.000000	0.000000
44.942297	18.370452	14.275796	0.066725	-0.150130	2.790754	0.000000	-0.012212	0.000000	0.000001	-0.000000	0.000000	0.000000
45.423547	18.319119	14.436706	-0.050352	-0.113072	2.784894	0.000000	0.001586	0.000000	0.000001	-0.000000	0.000000	0.000000
45.720870	18.353898	14.510146	-0.114578	-0.096019	2.785366	0.000000	0.008864	0.000000	0.000001	-0.000000	0.000000	0.000000
46.269930	18.170668	14.896306	0.446318	-0.611445	2.767665	0.000000	-0.073248	0.000000	0.000001	-0.000000	0.000000	0.000000
46.818990	17.385251	15.868918	0.975689	-1.170423	2.705170	0.000000	-0.154061	0.000000	0.000001	-0.000000	0.000000	0.000000
47.368050	16.053126	17.497258	1.436142	-1.812768	2.598989	0.000000	-0.232141	0.000000	0.000001	-0.000000	0.000000	0.000000
47.917110	14.268386	19.897308	1.795153	-2.584233	2.451007	0.000000	-0.306104	0.000000	0.000001	-0.000000	0.000000	0.000000
48.363070	12.879367	22.031274	1.330552	-2.180755	2.329788	0.000000	-0.237812	0.000000	0.000000	-0.000000	0.000000	0.000000
48.804030	11.886099	23.739916	0.930506	-1.679323	2.239380	0.000000	-0.172627	0.000000	0.000000	-0.000000	0.000000	0.000000
49.244990	11.225631	24.970824	0.572973	-1.101484	2.177257	0.000000	-0.109408	0.000000	0.000000	-0.000000	0.000000	0.000000
49.685950	10.867787	25.667994	0.241617	-0.473528	2.142709	0.000000	-0.047435	0.000000	0.000000	-0.000000	0.000000	0.000000
50.128160	10.796349	25.799423	-0.052340	0.112656	2.135355	0.000000	0.008762	0.000000	0.000000	-0.000000	0.000000	0.000000
50.425482	10.835683	25.735903	-0.079955	0.100985	2.137960	0.000000	0.008762	0.000000	0.000000	-0.000000	0.000000	0.000000
50.758816	10.899306	25.672941	-0.110914	0.087901	2.140881	0.000000	0.008762	0.000000	-0.000000	-0.000000	0.000000	0.000000
51.092149	10.983569	25.618702	-0.141873	0.074817	2.143801	0.000000	0.008762	0.000000	-0.000000	-0.000000	0.000000	0.000000
51.426732	11.088678	25.573549	-0.082990	-0.145781	2.146711	0.000000	-0.008654	0.000000	-0.000000	-0.000000	0.000000	0.000000
51.724055	11.146055	25.663768	-0.082655	-0.220590	2.144138	0.000000	-0.013912	0.000000	-0.000000	-0.000000	0.000000	0.000000
52.165015	11.364443	25.572827	-0.414479	0.426039	2.151592	0.000000	0.047749	0.000000	-0.000000	-0.000000	0.000000	0.000000
52.605975	11.882685	24.918013	-0.765240	1.053283	2.186329	0.000000	0.109954	0.000000	-0.000000	-0.000000	0.000000	0.000000
53.046935	12.724461	23.729121	-1.150962	1.632604	2.248746	0.000000	0.173411	0.000000	-0.000000	-0.000000	0.000000	0.000000
53.487895	13.928226	22.060242	-1.589269	2.137642	2.339554	0.000000	0.238843	0.000000	-0.000001	-0.000000	0.000000	0.000000
53.933855	15.569608	19.962356	-2.104424	2.546754	2.461290	0.000000	0.307394	0.000000	-0.000001	-0.000000	0.000000	0.000000
54.482915	17.682777	17.601805	-1.721497	1.777883	2.609888	0.000000	0.233088	0.000000	-0.000001	-0.000000	0.000000	0.000000
55.031975	19.305780	16.011490	-1.216972	1.135647	2.716490	0.000000	0.154648	0.000000	-0.000001	-0.000000	0.000000	0.000000
55.581035	20.323977	15.078136	-0.626486	0.574300	2.779206	0.000000	0.073465	0.000000	-0.000001	-0.000000	0.000000	0.000000
56.130095	20.665446	14.735263	0.008251	0.053860	2.796924	0.000000	-0.009021	0.000000	-0.000001	-0.000000	0.000000	0.000000
56.428668	20.697084	14.686212	-0.060222	0.071925	2.796412	0.000000	-0.001713	0.000000	-0.000001	-0.000000	0.000000	0.000000
56.762001	20.742620	14.645866	-0.076386	0.049111	2.795841	0.000000	-0.001713	0.000000	-0.000001	-0.000000	0.000000	0.000000
57.095334	20.798932	14.620731	-0.092550	0.026296	2.795270	0.000000	-0.001713	0.000000	-0.000001	-0.000000	0.000000	0.000000
57.429918	20.866292	14.610796	-0.108774	0.003396	2.794697	0.000000	-0.001713	0.000000	-0.000001	-0.000000	0.000000	0.000000
57.727240	20.935260	14.614827	-0.177892	0.021233	2.794188	0.000000	0.005587	0.000000	-0.000001	-0.000000	0.000000	0.000000
58.276300	20.773378	14.872239	0.470983	-0.492823	2.774614	0.000000	-0.076780	0.000000	-0.000001	-0.000000	0.000000	0.000000
58.825360	19.913084	15.709994	1.086590	-1.041981	2.710124	0.000000	-0.157786	0.000000	-0.000001	-0.000000	0.000000	0.000000
59.374420	18.415146	17.187762	1.625446	-1.665358	2.601861	0.000000	-0.235993	0.000000	-0.000001	0.000000	0.000000	0.000000
59.923480	16.385370	19.410803	2.049489	-2.407354	2.451744	0.000000	-0.310014	0.000000	-0.000001	0.000000	0.000000	0.000000
60.369440	14.796573	21.386742	1.525773	-2.004700	2.328782	0.000000	-0.241726	0.000000	-0.000001	0.000000	0.000000	0.000000
60.810400	13.653641	22.943481	1.075978	-1.512205	2.236639	0.000000	-0.176589	0.000000	-0.000001	-0.000000	0.000000	0.000000
61.251360	12.884297	24.033762	0.675342	-0.950905	2.172749	0.000000	-0.113463	0.000000	-0.000001	-0.000000	0.000000	0.000000
61.692320	12.453393	24.607980	0.305560	-0.346339	2.136384	0.000000	-0.051630	0.000000	-0.000001	-0.000000	0.000000	0.000000
62.134530	12.341292	24.639474	-0.020098	0.213506	2.127135	0.000000	0.004399	0.000000	-0.000001	-0.000000	0.000000	0.000000
62.431853	12.360410	24.516265	-0.044199	0.200889	2.128444	0.000000	0.004399	0.000000	-0.000002	-0.000000	0.000000	0.000000
62.765186	12.398883	24.387055	-0.071220	0.186743	2.129910	0.000000	0.004399	0.000000	-0.000002	-0.000000	0.000000	0.000000
63.098520	12.455370	24.267274	-0.098240	0.172598	2.131377	0.000000	0.004399	0.000000	-0.000002	-0.000000	0.000000	0.000000
63.433103	12.530183	24.156527	-0.125362	0.158400	2.132849	0.000000	0.004399	0.000000	-0.000002	-0.000000	0.000000	0.000000
63.730426	12.611895	24.066087	-0.118535	0.086765	2.134157	0.000000	-0.000834	0.000000	-0.000002	-0.000000	0.000000	0.000000
64.171386	12.876972	23.724511	-0.484881	0.684906	2.147331	0.000000	0.060643	0.000000	-0.000002	-0.000000	0.000000	0.000000
64.612346	13.473647	22.867201	-0.873380	1.251884	2.187740	0.000000	0.122811	0.000000	-0.000002	-0.000000	0.000000	0.000000
65.053306	14.429182	21.533165	-1.301781	1.761903	2.255845	0.000000	0.186378	0.000000	-0.000002	-0.000000	0.000000	0.000000
65.494266	15.787230	19.783100	-1.789657	2.191757	2.352422	0.000000	0.252067	0.000000	-0.000002	-0.000000	0.000000	0.000000
65.940226	17.633009	17.671857	-2.363992	2.522644	2.480142	0.000000	0.321029	0.000000	-0.000002	-0.000000	0.000000	0.000000
66.489286	19.998896	15.309950	-1.919479	1.804477	2.636037	0.000000	0.245994	0.000000	-0.000002	-0.000000	0.000000	0.000000
67.038346	21.798863	13.661892	-1.339385	1.214839	2.749473	0.000000	0.166596	0.000000	-0.000003	-0.000000	0.000000	0.000000
67.587406	22.905769	12.610296	-0.664683	0.711732	2.818437	0.000000	0.084243	0.000000	-0.000003	-0.000000	0.000000	0.000000
68.136466	23.241427	12.080259	0.056969	0.259319	2.841707	0.000000	0.000396	0.000000	-0.000003	-0.000000	0.000000	0.000000
68.435038	23.247507	11.914564	-0.016605	0.264076	2.844043	0.000000	0.007821	0.000000	-0.000003	-0.000000	0.000000	0.000000
68.768372	23.263357	11.748489	-0.030947	0.234148	2.846650	0.000000	0.007821	0.000000	-0.000003	-0.000000	0.000000	0.000000
69.101705	23.288769	11.602366	-0.045289	0.204220	2.849257	0.000000	0.007821	0.000000	-0.000003	-0.000000	0.000000	0.000000
69.436288	23.323892	11.475760	-0.059686	0.174180	2.851873	0.000000	0.007821	0.000000	-0.000003	-0.000000	0.000000	0.000000
69.733611	23.363188	11.380121	-0.133524	0.177220	2.854199	0.000000	0.015279	0.000000	-0.000003	-0.000000	0.000000	0.000000
70.282671	23.108572	11.413338	0.594508	-0.238075	2.839399	0.000000	-0.069111	0.000000	-0.000003	0.000000	0.000000	0.000000
