#ParticleID	Turn	x[m]	xp	y[m]	yp	z[m]	dE[GeV]# s	beta_x	beta_y	alpha_x	alpha_y	D_x	D_y	D_px	D_py	orbit_x	orbit_px	orbit_y	orbit_py
0.300000	11.813256	25.021273	-0.010941	-0.027263	2.618053	0.000000	0.000035	0.000000	-0.000001	0.000001	0.000000	0.000000
0.601250	11.827531	25.041329	-0.036445	-0.039311	2.618064	0.000000	0.000035	0.000000	-0.000000	0.000001	0.000000	0.000000
0.898573	11.856687	25.068241	-0.032541	-0.112677	2.618074	0.000000	-0.006385	0.000000	0.000000	0.000001	0.000000	0.000000
1.339533	12.037508	24.889537	-0.379075	0.516396	2.631551	0.000000	0.067571	0.000000	0.000001	0.000001	0.000000	0.000000
1.780493	12.530397	24.164321	-0.742929	1.121974	2.677778	0.000000	0.142297	0.000000	0.000001	0.000001	0.000000	0.000000
2.221453	13.357874	22.925592	-1.140725	1.676502	2.757282	0.000000	0.218644	0.000000	0.000002	0.000001	0.000000	0.000000
2.662413	14.557744	21.229708	-1.590637	2.154752	2.870969	0.000000	0.297481	0.000000	0.000002	0.000001	0.000000	0.000000
3.108373	16.205568	19.128963	-2.117510	2.536094	3.021994	0.000000	0.380195	0.000000	0.000003	0.000001	0.000000	0.000000
3.657433	18.318630	16.769511	-1.708215	1.786528	3.205471	0.000000	0.287157	0.000000	0.000004	0.000001	0.000000	0.000000
4.206493	19.912915	15.158884	-1.178259	1.164213	3.336390	0.000000	0.189025	0.000000	0.000004	0.000001	0.000000	0.000000
4.755553	20.875811	14.182360	-0.565077	0.624822	3.412427	0.000000	0.087541	0.000000	0.000005	0.000001	0.000000	0.000000
5.304613	21.139304	13.770384	0.088019	0.129936	3.432234	0.000000	-0.015496	0.000000	0.000006	0.000001	0.000000	0.000000
5.603185	21.123946	13.677962	0.018650	0.143635	3.430284	0.000000	-0.006529	0.000000	0.000006	0.000001	0.000000	0.000000
5.936519	21.116775	13.590496	0.002864	0.118762	3.428108	0.000000	-0.006529	0.000000	0.000006	0.000001	0.000000	0.000000
6.269852	21.120127	13.519612	-0.012921	0.093889	3.425931	0.000000	-0.006529	0.000000	0.000006	0.000001	0.000000	0.000000
6.604435	21.134075	13.465138	-0.028766	0.068923	3.423747	0.000000	-0.006529	0.000000	0.000007	0.000001	0.000000	0.000000
6.901758	21.155367	13.430750	-0.098118	0.081827	3.421805	0.000000	0.002411	0.000000	0.000007	0.000001	0.000000	0.000000
7.450818	20.902564	13.601721	0.555820	-0.395053	3.394927	0.000000	-0.100173	0.000000	0.000007	0.000001	0.000000	0.000000
7.999878	19.949068	14.308650	1.170498	-0.900073	3.312128	0.000000	-0.200981	0.000000	0.000008	0.000000	0.000000	0.000000
8.548938	18.362228	15.601891	1.702497	-1.469202	3.174879	0.000000	-0.298224	0.000000	0.000008	0.000000	0.000000	0.000000
9.097998	16.254130	17.573557	2.114241	-2.142980	2.985614	0.000000	-0.390178	0.000000	0.000008	-0.000000	0.000000	0.000000
9.543958	14.609436	19.330408	1.586857	-1.779849	2.829917	0.000000	-0.308467	0.000000	0.000008	0.000000	0.000000	0.000000
9.984918	13.413187	20.710051	1.136261	-1.336971	2.711143	0.000000	-0.230754	0.000000	0.000008	0.000000	0.000000	0.000000
10.425878	12.590022	21.670693	0.737578	-0.833262	2.626025	0.000000	-0.155670	0.000000	0.000008	0.000001	0.000000	0.000000
10.866838	12.102332	22.168625	0.372592	-0.291640	2.573594	0.000000	-0.082358	0.000000	0.000008	0.000001	0.000000	0.000000
11.309048	11.927702	22.180669	0.053771	0.208802	2.553233	0.000000	-0.016245	0.000000	0.000009	0.000001	0.000000	0.000000
11.606371	11.903160	22.060665	0.028772	0.194813	2.548403	0.000000	-0.016245	0.000000	0.000009	0.000001	0.000000	0.000000
12.086371	11.894910	21.884485	-0.011586	0.172229	2.540605	0.000000	-0.016245	0.000000	0.000009	0.000001	0.000000	0.000000
12.566371	11.925406	21.729986	-0.051945	0.149645	2.532807	0.000000	-0.016245	0.000000	0.000010	0.000001	0.000000	0.000000
13.046371	11.994645	21.597167	-0.092304	0.127061	2.525009	0.000000	-0.016245	0.000000	0.000010	0.000001	0.000000	0.000000
13.526371	12.102629	21.486028	-0.132663	0.104477	2.517211	0.000000	-0.016245	0.000000	0.000011	0.000001	0.000000	0.000000
14.007621	12.249791	21.396366	-0.173127	0.081834	2.509393	0.000000	-0.016245	0.000000	0.000011	0.000001	0.000000	0.000000
14.304943	12.360173	21.351863	-0.167818	0.015490	2.504563	0.000000	-0.022386	0.000000	0.000011	0.000001	0.000000	0.000000
14.745903	12.666711	21.104506	-0.529980	0.543325	2.510324	0.000000	0.048545	0.000000	0.000012	0.000001	0.000000	0.000000
15.186863	13.302078	20.400806	-0.916356	1.046439	2.547455	0.000000	0.120028	0.000000	0.000013	0.000002	0.000000	0.000000
15.627823	14.295300	19.272780	-1.344597	1.501940	2.616379	0.000000	0.192879	0.000000	0.000013	0.000002	0.000000	0.000000
16.068783	15.691755	17.771753	-1.834269	1.889105	2.717879	0.000000	0.267926	0.000000	0.000014	0.000002	0.000000	0.000000
16.514743	17.578900	15.944517	-2.412501	2.191061	2.854809	0.000000	0.346487	0.000000	0.000015	0.000003	0.000000	0.000000
17.063803	20.002679	13.904240	-1.975780	1.546817	3.021316	0.000000	0.259141	0.000000	0.000017	0.000002	0.000000	0.000000
17.612863	21.866948	12.507132	-1.399501	1.012749	3.138530	0.000000	0.167198	0.000000	0.000017	0.000002	0.000000	0.000000
18.161923	23.040024	11.653678	-0.724367	0.550816	3.204373	0.000000	0.072290	0.000000	0.000018	0.000001	0.000000	0.000000
18.710983	23.439046	11.283090	0.001932	0.128117	3.217677	0.000000	-0.023901	0.000000	0.000019	0.000000	0.000000	0.000000
19.009556	23.478274	11.197081	-0.072084	0.130474	3.213050	0.000000	-0.015495	0.000000	0.000019	0.000000	0.000000	0.000000
19.342889	23.531087	11.120191	-0.086355	0.100198	3.207885	0.000000	-0.015495	0.000000	0.000019	0.000000	0.000000	0.000000
19.676223	23.593414	11.063484	-0.100626	0.069921	3.202720	0.000000	-0.015495	0.000000	0.000019	0.000000	0.000000	0.000000
20.010806	23.665836	11.026727	-0.232205	0.094165	3.197555	0.000000	0.000347	0.000000	0.000019	0.000000	0.000000	0.000000
20.308129	23.807852	10.978820	-0.307641	0.095643	3.197658	0.000000	0.008701	0.000000	0.000019	0.000001	0.000000	0.000000
20.857189	23.735051	11.095923	0.439448	-0.310180	3.176211	0.000000	-0.086709	0.000000	0.000019	-0.000000	0.000000	0.000000
21.406249	22.854116	11.668112	1.155497	-0.738097	3.102724	0.000000	-0.180581	0.000000	0.000019	-0.000001	0.000000	0.000000
21.955309	21.227270	12.736145	1.789927	-1.218586	2.978500	0.000000	-0.271250	0.000000	0.000019	-0.000001	0.000000	0.000000
22.504369	18.969427	14.376093	2.297925	-1.785873	2.805743	0.000000	-0.357108	0.000000	0.000018	-0.000002	0.000000	0.000000
22.950329	17.190022	15.848479	1.706214	-1.501809	2.663785	0.000000	-0.279885	0.000000	0.000017	-0.000001	0.000000	0.000000
23.391289	15.914592	17.022406	1.197151	-1.150268	2.556692	0.000000	-0.206304	0.000000	0.000016	-0.000001	0.000000	0.000000
23.832249	15.062392	17.861951	0.742782	-0.746390	2.481497	0.000000	-0.135073	0.000000	0.000016	-0.000001	0.000000	0.000000
24.273209	14.594487	18.328916	0.322349	-0.308553	2.437343	0.000000	-0.065381	0.000000	0.000016	-0.000000	0.000000	0.000000
24.715418	14.489618	18.401809	-0.047915	0.098134	2.423724	0.000000	-0.002375	0.000000	0.000016	0.000000	0.000000	0.000000
25.012741	14.524226	18.348304	-0.068482	0.081821	2.423018	0.000000	-0.002375	0.000000	0.000016	0.000000	0.000000	0.000000
25.346075	14.577566	18.299853	-0.091540	0.063533	2.422226	0.000000	-0.002375	0.000000	0.000016	0.000000	0.000000	0.000000
25.679408	14.646279	18.263594	-0.114598	0.045244	2.421434	0.000000	-0.002375	0.000000	0.000016	0.000000	0.000000	0.000000
26.013991	14.730409	18.239830	-0.018239	-0.121083	2.420615	0.000000	-0.022013	0.000000	0.000016	0.000000	0.000000	0.000000
26.311314	14.747258	18.316749	-0.002271	-0.182534	2.414070	0.000000	-0.027932	0.000000	0.000016	-0.000000	0.000000	0.000000
26.752274	14.930952	18.279085	-0.415886	0.267624	2.416866	0.000000	0.040627	0.000000	0.000016	0.000000	0.000000	0.000000
27.193234	15.486389	17.848291	-0.848501	0.705605	2.449968	0.000000	0.109650	0.000000	0.000016	0.000001	0.000000	0.000000
27.634194	16.438946	17.043967	-1.319882	1.111482	2.513751	0.000000	0.179921	0.000000	0.000017	0.000001	0.000000	0.000000
28.075154	17.832142	15.902711	-1.851565	1.466787	2.608943	0.000000	0.252241	0.000000	0.000018	0.000002	0.000000	0.000000
28.521114	19.753832	14.459256	-2.472808	1.756267	2.738231	0.000000	0.327878	0.000000	0.000018	0.000002	0.000000	0.000000
29.070174	22.196315	12.850976	-1.949337	1.190173	2.895585	0.000000	0.244457	0.000000	0.000019	0.000002	0.000000	0.000000
29.619234	23.984489	11.814415	-1.288175	0.708853	3.005876	0.000000	0.156700	0.000000	0.000020	0.000001	0.000000	0.000000
30.168294	24.992048	11.275741	-0.536022	0.278023	3.067149	0.000000	0.066164	0.000000	0.000020	0.000000	0.000000	0.000000
30.717354	25.147821	11.196584	0.253992	-0.133004	3.078316	0.000000	-0.025546	0.000000	0.000020	-0.000000	0.000000	0.000000
31.015927	25.039051	11.266588	0.176003	-0.130708	3.073090	0.000000	-0.017504	0.000000	0.000020	-0.000000	0.000000	0.000000
31.349260	24.926291	11.363758	0.162278	-0.160800	3.067255	0.000000	-0.017504	0.000000	0.000020	-0.000000	0.000000	0.000000
31.682593	24.822680	11.480988	0.148553	-0.190891	3.061420	0.000000	-0.017504	0.000000	0.000020	-0.000000	0.000000	0.000000
32.017177	24.727883	11.618832	0.134777	-0.221095	3.055564	0.000000	-0.017504	0.000000	0.000020	-0.000000	0.000000	0.000000
32.314499	24.651378	11.758285	0.058136	-0.217219	3.050360	0.000000	-0.009536	0.000000	0.000020	-0.000000	0.000000	0.000000
32.863559	24.165177	12.236027	0.822138	-0.658025	3.020236	0.000000	-0.100033	0.000000	0.000019	-0.000001	0.000000	0.000000
33.412619	22.867088	13.220569	1.528068	-1.145700	2.940839	0.000000	-0.188755	0.000000	0.000019	-0.000002	0.000000	0.000000
33.961679	20.848802	14.782038	2.126063	-1.714981	2.813577	0.000000	-0.274130	0.000000	0.000018	-0.000002	0.000000	0.000000
34.510739	18.252882	17.031655	2.573883	-2.406417	2.640707	0.000000	-0.354642	0.000000	0.000016	-0.000003	0.000000	0.000000
34.956699	16.234440	19.043859	1.968393	-2.086817	2.498896	0.000000	-0.281698	0.000000	0.000015	-0.000002	0.000000	0.000000
35.397659	14.729314	20.708127	1.457847	-1.673013	2.390064	0.000000	-0.212390	0.000000	0.000014	-0.000002	0.000000	0.000000
35.838619	13.643489	21.972365	1.013906	-1.183089	2.311232	0.000000	-0.145502	0.000000	0.000014	-0.000002	0.000000	0.000000
36.279579	12.927354	22.779051	0.616288	-0.639335	2.261502	0.000000	-0.080271	0.000000	0.000013	-0.000001	0.000000	0.000000
36.721789	12.547500	23.091789	0.277488	-0.123167	2.240280	0.000000	-0.021447	0.000000	0.000013	-0.000001	0.000000	0.000000
37.019112	12.390081	23.168916	0.251967	-0.136238	2.233904	0.000000	-0.021447	0.000000	0.000012	-0.000001	0.000000	0.000000
37.352445	12.231639	23.264626	0.223356	-0.150892	2.226755	0.000000	-0.021447	0.000000	0.000012	-0.000001	0.000000	0.000000
37.685779	12.092272	23.370106	0.194745	-0.165546	2.219606	0.000000	-0.021447	0.000000	0.000012	-0.000001	0.000000	0.000000
38.020362	11.971564	23.485805	0.166026	-0.180255	2.212431	0.000000	-0.021447	0.000000	0.000011	-0.000001	0.000000	0.000000
38.317684	11.880426	23.596879	0.169637	-0.251187	2.206055	0.000000	-0.026856	0.000000	0.000011	-0.000001	0.000000	0.000000
38.758644	11.882280	23.557040	-0.173858	0.341190	2.208142	0.000000	0.036332	0.000000	0.000011	-0.000001	0.000000	0.000000
39.199604	12.189413	22.999647	-0.525296	0.918044	2.238158	0.000000	0.099934	0.000000	0.000011	-0.000000	0.000000	0.000000
39.640564	12.815859	21.950061	-0.900734	1.453127	2.296443	0.000000	0.164673	0.000000	0.000011	-0.000000	0.000000	0.000000
40.081524	13.790237	20.456039	-1.317323	1.922094	2.383662	0.000000	0.231289	0.000000	0.000011	0.000000	0.000000	0.000000
40.527484	15.174640	18.562984	-1.797924	2.304891	2.502279	0.000000	0.300944	0.000000	0.000011	0.000000	0.000000	0.000000
41.076544	16.941284	16.435655	-1.400608	1.592471	2.646982	0.000000	0.225373	0.000000	0.000011	0.000000	0.000000	0.000000
41.625604	18.214386	15.024144	-0.904359	0.993480	2.749032	0.000000	0.145805	0.000000	0.000011	-0.000000	0.000000	0.000000
42.174664	18.904019	14.227912	-0.344231	0.465253	2.806618	0.000000	0.063650	0.000000	0.000011	-0.000001	0.000000	0.000000
42.723724	18.961472	13.990245	0.240212	-0.029836	2.818720	0.000000	-0.019633	0.000000	0.000010	-0.000001	0.000000	0.000000
43.022297	18.852485	13.992607	0.174354	-0.014628	2.815057	0.000000	-0.012269	0.000000	0.000010	-0.000001	0.000000	0.000000
43.502297	18.697697	14.023119	0.148119	-0.048939	2.809169	0.000000	-0.012269	0.000000	0.000009	-0.000001	0.000000	0.000000
43.982297	18.568095	14.086570	0.121885	-0.083250	2.803280	0.000000	-0.012269	0.000000	0.000009	-0.000001	0.000000	0.000000
44.462297	18.463679	14.182959	0.095650	-0.117561	2.797391	0.000000	-0.012269	0.000000	0.000009	-0.000001	0.000000	0.000000
44.942297	18.384448	14.312287	0.069415	-0.151872	2.791502	0.000000	-0.012269	0.000000	0.000008	-0.000001	0.000000	0.000000
45.423547	18.330521	14.474840	-0.047708	-0.114556	2.785616	0.000000	0.001532	0.000000	0.000008	-0.000001	0.000000	0.000000
45.720870	18.363724	14.549148	-0.111943	-0.097354	2.786072	0.000000	0.008812	0.000000	0.000007	-0.000001	0.000000	0.000000
46.269930	18.177442	14.937436	0.449208	-0.614007	2.768336	0.000000	-0.073323	0.000000	0.000007	-0.000001	0.000000	0.000000
46.818990	17.388804	15.913613	0.978630	-1.174394	2.705794	0.000000	-0.154157	0.000000	0.000006	-0.000001	0.000000	0.000000
47.368050	16.053517	17.547210	1.438926	-1.818430	2.599557	0.000000	-0.232256	0.000000	0.000006	-0.000001	0.000000	0.000000
47.917110	14.265897	19.954586	1.797583	-2.591990	2.451507	0.000000	-0.306236	0.000000	0.000005	-0.000002	0.000000	0.000000
48.363070	12.874798	22.094934	1.332805	-2.187251	2.330232	0.000000	-0.237933	0.000000	0.000004	-0.000002	0.000000	0.000000
48.804030	11.879581	23.808641	0.932689	-1.684269	2.239775	0.000000	-0.172736	0.000000	0.000003	-0.000001	0.000000	0.000000
49.244990	11.217182	25.043142	0.575184	-1.104653	2.177605	0.000000	-0.109508	0.000000	0.000003	-0.000001	0.000000	0.000000
49.685950	10.857338	25.742268	0.243959	-0.474777	2.143016	0.000000	-0.047526	0.000000	0.000002	-0.000001	0.000000	0.000000
50.128160	10.783732	25.873926	-0.049793	0.113203	2.135624	0.000000	0.008677	0.000000	0.000002	-0.000001	0.000000	0.000000
50.425482	10.821560	25.810071	-0.077433	0.101564	2.138204	0.000000	0.008677	0.000000	0.000001	-0.000001	0.000000	0.000000
50.758816	10.883511	25.746711	-0.108421	0.088516	2.141097	0.000000	0.008677	0.000000	0.000001	-0.000001	0.000000	0.000000
51.092149	10.966120	25.692050	-0.139408	0.075468	2.143990	0.000000	0.008677	0.000000	0.000000	-0.000001	0.000000	0.000000
51.426732	11.069590	25.646451	-0.080708	-0.145685	2.146872	0.000000	-0.008739	0.000000	-0.000000	-0.000001	0.000000	0.000000
51.724055	11.125620	25.736602	-0.080459	-0.220639	2.144274	0.000000	-0.013998	0.000000	-0.000000	-0.000001	0.000000	0.000000
52.165015	11.341849	25.644854	-0.411761	0.427913	2.151690	0.000000	0.047666	0.000000	-0.000001	-0.000001	0.000000	0.000000
52.605975	11.857420	24.987568	-0.761876	1.056995	2.186392	0.000000	0.109873	0.000000	-0.000002	-0.000001	0.000000	0.000000
53.046935	12.695888	23.794651	-1.146799	1.637984	2.248774	0.000000	0.173331	0.000000	-0.000002	-0.000001	0.000000	0.000000
53.487895	13.895560	22.120379	-1.584115	2.144447	2.339547	0.000000	0.238763	0.000000	-0.000003	-0.000001	0.000000	0.000000
53.933855	15.531812	20.015898	-2.098033	2.554676	2.461249	0.000000	0.307314	0.000000	-0.000003	-0.000002	0.000000	0.000000
54.482915	17.638450	17.647805	-1.716063	1.783776	2.609803	0.000000	0.233010	0.000000	-0.000004	-0.000001	0.000000	0.000000
55.031975	19.256190	16.051935	-1.212878	1.139931	2.716364	0.000000	0.154573	0.000000	-0.000005	-0.000001	0.000000	0.000000
55.581035	20.270764	15.114616	-0.624022	0.577280	2.779041	0.000000	0.073395	0.000000	-0.000006	-0.000001	0.000000	0.000000
56.130095	20.610507	14.769085	0.008912	0.055748	2.796722	0.000000	-0.009085	0.000000	-0.000006	-0.000001	0.000000	0.000000
56.428668	20.641677	14.718841	-0.059458	0.073943	2.796192	0.000000	-0.001778	0.000000	-0.000006	-0.000001	0.000000	0.000000
56.762001	20.686718	14.677135	-0.075663	0.051172	2.795599	0.000000	-0.001778	0.000000	-0.000007	-0.000001	0.000000	0.000000
57.095334	20.742562	14.650611	-0.091869	0.028402	2.795007	0.000000	-0.001778	0.000000	-0.000007	-0.000001	0.000000	0.000000
57.429918	20.809480	14.639252	-0.108135	0.005546	2.794413	0.000000	-0.001778	0.000000	-0.000007	-0.000001	0.000000	0.000000
57.727240	20.878080	14.641993	-0.177144	0.023494	2.793884	0.000000	0.005523	0.000000	-0.000008	-0.000001	0.000000	0.000000
58.276300	20.716432	14.897339	0.469810	-0.491300	2.774279	0.000000	-0.076834	0.000000	-0.000008	-0.000001	0.000000	0.000000
58.825360	19.858449	15.733775	1.083579	-1.041089	2.709762	0.000000	-0.157829	0.000000	-0.000008	-0.000000	0.000000	0.000000
59.374420	18.364735	17.210879	1.620810	-1.665032	2.601478	0.000000	-0.236024	0.000000	-0.000008	-0.000000	0.000000	0.000000
59.923480	16.340799	19.433861	2.043554	-2.407572	2.451349	0.000000	-0.310032	0.000000	-0.000008	0.000000	0.000000	0.000000
60.369440	14.756695	21.409656	1.521146	-2.004158	2.328376	0.000000	-0.241755	0.000000	-0.000008	-0.000000	0.000000	0.000000
60.810400	13.617351	22.965590	1.072437	-1.510931	2.236218	0.000000	-0.176629	0.000000	-0.000008	-0.000000	0.000000	0.000000
61.251360	12.850713	24.054446	0.672724	-0.948958	2.172309	0.000000	-0.113514	0.000000	-0.000009	-0.000001	0.000000	0.000000
61.692320	12.421756	24.626682	0.303747	-0.343809	2.135919	0.000000	-0.051692	0.000000	-0.000009	-0.000001	0.000000	0.000000
62.134530	12.310934	24.655721	-0.021262	0.216461	2.126640	0.000000	0.004326	0.000000	-0.000009	-0.000001	0.000000	0.000000
62.431853	12.330762	24.530757	-0.045425	0.203837	2.127927	0.000000	0.004326	0.000000	-0.000010	-0.000001	0.000000	0.000000
62.765186	12.370074	24.399583	-0.072513	0.189684	2.129369	0.000000	0.004326	0.000000	-0.000010	-0.000001	0.000000	0.000000
63.098520	12.427446	24.277844	-0.099601	0.175531	2.130811	0.000000	0.004326	0.000000	-0.000010	-0.000001	0.000000	0.000000
63.433103	12.503193	24.165138	-0.126791	0.161325	2.132259	0.000000	0.004326	0.000000	-0.000010	-0.000001	0.000000	0.000000
63.730426	12.585773	24.072960	-0.120086	0.089661	2.133545	0.000000	-0.000907	0.000000	-0.000011	-0.000001	0.000000	0.000000
64.171386	12.851968	23.728773	-0.485876	0.687909	2.146684	0.000000	0.060554	0.000000	-0.000011	-0.000001	0.000000	0.000000
64.612346	13.449292	22.868819	-0.873863	1.254857	2.187051	0.000000	0.122705	0.000000	-0.000012	-0.000001	0.000000	0.000000
65.053306	14.405035	21.532225	-1.301775	1.764710	2.255106	0.000000	0.186253	0.000000	-0.000013	-0.000002	0.000000	0.000000
65.494266	15.762863	19.779804	-1.789162	2.194271	2.351624	0.000000	0.251922	0.000000	-0.000013	-0.000002	0.000000	0.000000
65.940226	17.607971	17.666495	-2.362981	2.524747	2.479276	0.000000	0.320863	0.000000	-0.000014	-0.000003	0.000000	0.000000
66.489286	19.973281	15.302377	-1.919446	1.806426	2.635088	0.000000	0.245858	0.000000	-0.000016	-0.000002	0.000000	0.000000
67.038346	21.773752	13.652201	-1.340332	1.216772	2.748458	0.000000	0.166491	0.000000	-0.000017	-0.000001	0.000000	0.000000
67.587406	22.882207	12.598428	-0.666543	0.713787	2.817375	0.000000	0.084172	0.000000	-0.000017	-0.000001	0.000000	0.000000
68.136466	23.220351	12.066002	0.054327	0.261643	2.840616	0.000000	0.000360	0.000000	-0.000018	-0.000000	0.000000	0.000000
68.435038	23.227984	11.898958	-0.019211	0.266302	2.842940	0.000000	0.007783	0.000000	-0.000018	-0.000000	0.000000	0.000000
68.768372	23.245576	11.731423	-0.033567	0.236302	2.845534	0.000000	0.007783	0.000000	-0.000018	-0.000000	0.000000	0.000000
69.101705	23.272739	11.583888	-0.047923	0.206302	2.848129	0.000000	0.007783	0.000000	-0.000018	-0.000000	0.000000	0.000000
69.436288	23.309629	11.455914	-0.062332	0.176189	2.850733	0.000000	0.007783	0.000000	-0.000018	-0.000000	0.000000	0.000000
69.733611	23.350501	11.359100	-0.136157	0.179113	2.853047	0.000000	0.015238	0.000000	-0.000018	-0.000000	0.000000	0.000000
70.282671	23.098984	11.389908	0.591533	-0.235555	2.838235	0.000000	-0.069113	0.000000	-0.000018	0.000000	0.000000	0.000000
