#ParticleID	Turn	x[m]	xp	y[m]	yp	z[m]	dE[GeV]# s	beta_x	beta_y	alpha_x	alpha_y	D_x	D_y	D_px	D_py	orbit_x	orbit_px	orbit_y	orbit_py
0.300000	11.820522	24.991258	-0.011808	-0.027536	2.618069	0.000000	0.000029	0.000000	0.000000	0.000001	0.000000	0.000000
0.601250	11.835314	25.011483	-0.037297	-0.039599	2.618077	0.000000	0.000029	0.000000	0.000000	0.000001	0.000000	0.000000
0.898573	11.864973	25.038570	-0.033357	-0.112907	2.618086	0.000000	-0.006391	0.000000	0.000001	0.000001	0.000000	0.000000
1.339533	12.046603	24.860414	-0.380102	0.515388	2.631561	0.000000	0.067566	0.000000	0.000001	0.000001	0.000000	0.000000
1.780493	12.540507	24.136416	-0.744212	1.120232	2.677786	0.000000	0.142292	0.000000	0.000001	0.000001	0.000000	0.000000
2.221453	13.369249	22.899518	-1.142323	1.674107	2.757288	0.000000	0.218639	0.000000	0.000002	0.000001	0.000000	0.000000
2.662413	14.570694	21.205997	-1.592624	2.151811	2.870972	0.000000	0.297476	0.000000	0.000002	0.000001	0.000000	0.000000
3.108373	16.220499	19.108069	-2.119981	2.532741	3.021996	0.000000	0.380190	0.000000	0.000002	0.000001	0.000000	0.000000
3.657433	18.336078	16.751830	-1.710301	1.783996	3.205471	0.000000	0.287152	0.000000	0.000003	0.000001	0.000000	0.000000
4.206493	19.932375	15.143618	-1.179815	1.162321	3.336387	0.000000	0.189021	0.000000	0.000003	0.000001	0.000000	0.000000
4.755553	20.896636	14.168885	-0.565992	0.623435	3.412422	0.000000	0.087536	0.000000	0.000003	0.000001	0.000000	0.000000
5.304613	21.160751	13.758202	0.087809	0.128955	3.432227	0.000000	-0.015501	0.000000	0.000004	0.000000	0.000000	0.000000
5.603185	21.145547	13.666387	0.018397	0.142610	3.430276	0.000000	-0.006533	0.000000	0.000004	0.000000	0.000000	0.000000
5.936519	21.138539	13.579609	0.002628	0.117723	3.428098	0.000000	-0.006533	0.000000	0.000004	0.000000	0.000000	0.000000
6.269852	21.142043	13.509423	-0.013141	0.092836	3.425920	0.000000	-0.006533	0.000000	0.000004	0.000000	0.000000	0.000000
6.604435	21.156133	13.455658	-0.028969	0.067856	3.423734	0.000000	-0.006533	0.000000	0.000004	0.000000	0.000000	0.000000
6.901758	21.177541	13.421907	-0.098366	0.080726	3.421791	0.000000	0.002407	0.000000	0.000004	0.000000	0.000000	0.000000
7.450818	20.924602	13.593955	0.556316	-0.395925	3.394911	0.000000	-0.100177	0.000000	0.000004	0.000000	0.000000	0.000000
7.999878	19.970167	14.301745	1.171702	-0.900778	3.312111	0.000000	-0.200985	0.000000	0.000005	0.000000	0.000000	0.000000
8.548938	18.381652	15.595691	1.704325	-1.469790	3.174860	0.000000	-0.298227	0.000000	0.000005	0.000000	0.000000	0.000000
9.097998	16.271263	17.567958	2.116563	-2.143493	2.985593	0.000000	-0.390180	0.000000	0.000005	-0.000000	0.000000	0.000000
9.543958	14.624730	19.325373	1.588673	-1.780596	2.829896	0.000000	-0.308470	0.000000	0.000005	-0.000000	0.000000	0.000000
9.984918	13.427071	20.705764	1.137657	-1.337915	2.711120	0.000000	-0.230758	0.000000	0.000005	0.000000	0.000000	0.000000
10.425878	12.602835	21.667309	0.738618	-0.834360	2.626001	0.000000	-0.155673	0.000000	0.000005	0.000000	0.000000	0.000000
10.866838	12.114367	22.166259	0.373324	-0.292842	2.573569	0.000000	-0.082362	0.000000	0.000005	0.000000	0.000000	0.000000
11.309048	11.939212	22.179392	0.054259	0.207552	2.553206	0.000000	-0.016250	0.000000	0.000005	0.000000	0.000000	0.000000
11.606371	11.914373	22.060129	0.029282	0.193569	2.548375	0.000000	-0.016250	0.000000	0.000005	0.000000	0.000000	0.000000
12.086371	11.905617	21.885139	-0.011040	0.170995	2.540574	0.000000	-0.016250	0.000000	0.000005	0.000000	0.000000	0.000000
12.566371	11.935570	21.731819	-0.051362	0.148421	2.532774	0.000000	-0.016250	0.000000	0.000005	0.000000	0.000000	0.000000
13.046371	12.004231	21.600171	-0.091684	0.125847	2.524974	0.000000	-0.016250	0.000000	0.000006	0.000000	0.000000	0.000000
13.526371	12.111602	21.490193	-0.132006	0.103273	2.517174	0.000000	-0.016250	0.000000	0.000006	0.000000	0.000000	0.000000
14.007621	12.258113	21.401685	-0.172433	0.080640	2.509353	0.000000	-0.016250	0.000000	0.000006	0.000000	0.000000	0.000000
14.304943	12.368076	21.357890	-0.167081	0.014285	2.504522	0.000000	-0.022391	0.000000	0.000006	0.000000	0.000000	0.000000
14.745903	12.674035	21.111517	-0.529399	0.542308	2.510281	0.000000	0.048538	0.000000	0.000006	0.000001	0.000000	0.000000
15.186863	13.308947	20.408613	-0.915904	1.045657	2.547409	0.000000	0.120021	0.000000	0.000007	0.000001	0.000000	0.000000
15.627823	14.301820	19.281159	-1.344254	1.501429	2.616329	0.000000	0.192870	0.000000	0.000007	0.000001	0.000000	0.000000
16.068783	15.698014	17.780454	-1.834019	1.888888	2.717826	0.000000	0.267916	0.000000	0.000008	0.000001	0.000000	0.000000
16.514743	17.584973	15.953275	-2.412332	2.191150	2.854751	0.000000	0.346476	0.000000	0.000008	0.000001	0.000000	0.000000
17.063803	20.008407	13.913003	-1.975326	1.546720	3.021253	0.000000	0.259131	0.000000	0.000009	0.000001	0.000000	0.000000
17.612863	21.872033	12.516105	-1.398793	1.012460	3.138463	0.000000	0.167191	0.000000	0.000009	0.000001	0.000000	0.000000
18.161923	23.044214	11.663082	-0.723456	0.550315	3.204303	0.000000	0.072284	0.000000	0.000010	0.000000	0.000000	0.000000
18.710983	23.442153	11.293177	0.002983	0.127368	3.217604	0.000000	-0.023904	0.000000	0.000010	0.000000	0.000000	0.000000
19.009556	23.480760	11.207589	-0.071042	0.129784	3.212977	0.000000	-0.015498	0.000000	0.000010	0.000000	0.000000	0.000000
19.342889	23.532877	11.131147	-0.085310	0.099541	3.207811	0.000000	-0.015498	0.000000	0.000010	0.000000	0.000000	0.000000
19.676223	23.594506	11.074867	-0.099577	0.069298	3.202645	0.000000	-0.015498	0.000000	0.000010	0.000000	0.000000	0.000000
20.010806	23.666225	11.038515	-0.231154	0.093634	3.197479	0.000000	0.000345	0.000000	0.000010	0.000000	0.000000	0.000000
20.308129	23.807614	10.990915	-0.306588	0.095178	3.197582	0.000000	0.008699	0.000000	0.000010	0.000000	0.000000	0.000000
20.857189	23.733667	11.108716	0.440470	-0.310996	3.176134	0.000000	-0.086709	0.000000	0.000010	-0.000000	0.000000	0.000000
21.406249	22.851659	11.682019	1.156416	-0.739321	3.102647	0.000000	-0.180579	0.000000	0.000010	-0.000000	0.000000	0.000000
21.955309	21.223891	12.751658	1.790679	-1.220306	2.978426	0.000000	-0.271245	0.000000	0.000010	-0.000001	0.000000	0.000000
22.504369	18.965340	14.393821	2.298457	-1.788210	2.805672	0.000000	-0.357101	0.000000	0.000009	-0.000001	0.000000	0.000000
22.950329	17.185450	15.868115	1.706775	-1.503732	2.663716	0.000000	-0.279880	0.000000	0.000009	-0.000001	0.000000	0.000000
23.391289	15.909503	17.043523	1.197767	-1.151691	2.556625	0.000000	-0.206301	0.000000	0.000009	-0.000001	0.000000	0.000000
23.832249	15.056725	17.884079	0.743482	-0.747249	2.481431	0.000000	-0.135071	0.000000	0.000008	-0.000000	0.000000	0.000000
24.273209	14.588154	18.351536	0.323165	-0.308808	2.437278	0.000000	-0.065380	0.000000	0.000008	-0.000000	0.000000	0.000000
24.715418	14.482499	18.424381	-0.046962	0.098437	2.423659	0.000000	-0.002377	0.000000	0.000008	0.000000	0.000000	0.000000
25.012741	14.516543	18.370691	-0.067537	0.082143	2.422952	0.000000	-0.002377	0.000000	0.000008	0.000000	0.000000	0.000000
25.346075	14.569256	18.322018	-0.090604	0.063875	2.422160	0.000000	-0.002377	0.000000	0.000008	0.000000	0.000000	0.000000
25.679408	14.637348	18.285524	-0.113671	0.045608	2.421367	0.000000	-0.002377	0.000000	0.000008	0.000000	0.000000	0.000000
26.013991	14.720861	18.261509	-0.017400	-0.120874	2.420547	0.000000	-0.022014	0.000000	0.000008	-0.000000	0.000000	0.000000
26.311314	14.737215	18.338298	-0.001466	-0.182361	2.414002	0.000000	-0.027934	0.000000	0.000008	-0.000000	0.000000	0.000000
26.752274	14.920087	18.300223	-0.414821	0.268378	2.416797	0.000000	0.040624	0.000000	0.000008	0.000000	0.000000	0.000000
27.193234	15.474454	17.868520	-0.847129	0.706905	2.449897	0.000000	0.109645	0.000000	0.000008	0.000000	0.000000	0.000000
27.634194	16.425642	17.062830	-1.318139	1.113269	2.513678	0.000000	0.179914	0.000000	0.000009	0.000001	0.000000	0.000000
28.075154	17.817109	15.919812	-1.849372	1.468979	2.608867	0.000000	0.252232	0.000000	0.000009	0.000001	0.000000	0.000000
28.521114	19.736603	14.474256	-2.470059	1.758766	2.738151	0.000000	0.327867	0.000000	0.000009	0.000001	0.000000	0.000000
29.070174	22.176295	12.863563	-1.947034	1.192097	2.895500	0.000000	0.244449	0.000000	0.000010	0.000001	0.000000	0.000000
29.619234	23.962261	11.825140	-1.286480	0.710339	3.005788	0.000000	0.156695	0.000000	0.000010	0.000000	0.000000	0.000000
30.168294	24.968349	11.285025	-0.535055	0.279177	3.067059	0.000000	0.066161	0.000000	0.000010	0.000000	0.000000	0.000000
30.717354	25.123493	11.204744	0.254163	-0.132100	3.078226	0.000000	-0.025545	0.000000	0.000010	-0.000000	0.000000	0.000000
31.015927	25.014590	11.274186	0.176219	-0.129755	3.073000	0.000000	-0.017503	0.000000	0.000010	-0.000000	0.000000	0.000000
31.349260	24.901691	11.370711	0.162480	-0.159819	3.067165	0.000000	-0.017503	0.000000	0.000010	-0.000000	0.000000	0.000000
31.682593	24.797950	11.487278	0.148741	-0.189883	3.061331	0.000000	-0.017503	0.000000	0.000010	-0.000000	0.000000	0.000000
32.017177	24.703032	11.624438	0.134950	-0.220059	3.055475	0.000000	-0.017503	0.000000	0.000010	-0.000000	0.000000	0.000000
32.314499	24.626429	11.763268	0.058356	-0.216143	3.050271	0.000000	-0.009534	0.000000	0.000010	-0.000000	0.000000	0.000000
32.863559	24.140442	12.239879	0.821529	-0.657030	3.020148	0.000000	-0.100028	0.000000	0.000010	-0.000001	0.000000	0.000000
33.412619	22.843460	13.223340	1.526674	-1.144715	2.940754	0.000000	-0.188748	0.000000	0.000009	-0.000001	0.000000	0.000000
33.961679	20.827095	14.783701	2.123981	-1.713936	2.813496	0.000000	-0.274120	0.000000	0.000009	-0.000001	0.000000	0.000000
34.510739	18.233773	17.032103	2.571262	-2.405238	2.640632	0.000000	-0.354630	0.000000	0.000008	-0.000001	0.000000	0.000000
34.956699	16.217405	19.043190	1.966347	-2.085501	2.498826	0.000000	-0.281687	0.000000	0.000008	-0.000001	0.000000	0.000000
35.397659	14.713868	20.706261	1.456278	-1.671623	2.389998	0.000000	-0.212382	0.000000	0.000007	-0.000001	0.000000	0.000000
35.838619	13.629244	21.969263	1.012742	-1.181688	2.311168	0.000000	-0.145495	0.000000	0.000007	-0.000001	0.000000	0.000000
36.279579	12.913978	22.774732	0.615476	-0.637986	2.261440	0.000000	-0.080265	0.000000	0.000006	-0.000001	0.000000	0.000000
36.721789	12.534701	23.086323	0.276960	-0.121922	2.240221	0.000000	-0.021443	0.000000	0.000006	-0.000000	0.000000	0.000000
37.019112	12.377601	23.162709	0.251420	-0.134992	2.233845	0.000000	-0.021443	0.000000	0.000006	-0.000000	0.000000	0.000000
37.352445	12.219532	23.257588	0.222788	-0.149645	2.226698	0.000000	-0.021443	0.000000	0.000006	-0.000000	0.000000	0.000000
37.685779	12.080551	23.362236	0.194155	-0.164298	2.219550	0.000000	-0.021443	0.000000	0.000006	-0.000000	0.000000	0.000000
38.020362	11.960245	23.477100	0.165415	-0.179007	2.212376	0.000000	-0.021443	0.000000	0.000006	-0.000000	0.000000	0.000000
38.317684	11.869475	23.587432	0.168982	-0.249917	2.206001	0.000000	-0.026852	0.000000	0.000005	-0.000001	0.000000	0.000000
38.758644	11.871798	23.546587	-0.174271	0.342192	2.208089	0.000000	0.036334	0.000000	0.000005	-0.000000	0.000000	0.000000
39.199604	12.179197	22.988445	-0.525485	0.918732	2.238105	0.000000	0.099934	0.000000	0.000005	-0.000000	0.000000	0.000000
39.640564	12.805714	21.938403	-0.900708	1.453470	2.296390	0.000000	0.164673	0.000000	0.000005	-0.000000	0.000000	0.000000
40.081524	13.779974	20.444236	-1.317081	1.922077	2.383609	0.000000	0.231287	0.000000	0.000005	0.000000	0.000000	0.000000
40.527484	15.164060	18.551358	-1.797454	2.304512	2.502225	0.000000	0.300940	0.000000	0.000005	0.000000	0.000000	0.000000
41.076544	16.930405	16.424279	-1.400537	1.592392	2.646926	0.000000	0.225371	0.000000	0.000005	-0.000000	0.000000	0.000000
41.625604	18.203651	15.012694	-0.904693	0.993695	2.748976	0.000000	0.145805	0.000000	0.000005	-0.000000	0.000000	0.000000
42.174664	18.893865	14.216059	-0.344947	0.465777	2.806563	0.000000	0.063652	0.000000	0.000005	-0.000000	0.000000	0.000000
42.723724	18.952291	13.977630	0.239165	-0.028965	2.818666	0.000000	-0.019629	0.000000	0.000005	-0.000000	0.000000	0.000000
43.022297	18.843916	13.979497	0.173328	-0.013807	2.815005	0.000000	-0.012265	0.000000	0.000004	-0.000000	0.000000	0.000000
43.502297	18.690115	14.009237	0.147090	-0.048150	2.809118	0.000000	-0.012265	0.000000	0.000004	-0.000000	0.000000	0.000000
43.982297	18.561503	14.071945	0.120852	-0.082492	2.803230	0.000000	-0.012265	0.000000	0.000004	-0.000000	0.000000	0.000000
44.462297	18.458079	14.167622	0.094615	-0.116835	2.797343	0.000000	-0.012265	0.000000	0.000004	-0.000000	0.000000	0.000000
44.942297	18.379843	14.296268	0.068377	-0.151178	2.791456	0.000000	-0.012265	0.000000	0.000004	-0.000000	0.000000	0.000000
45.423547	18.326916	14.458168	-0.048731	-0.113975	2.785571	0.000000	0.001536	0.000000	0.000003	-0.000000	0.000000	0.000000
45.720870	18.360729	14.532136	-0.112964	-0.096838	2.786028	0.000000	0.008815	0.000000	0.000003	-0.000000	0.000000	0.000000
46.269930	18.175615	14.919570	0.448115	-0.612958	2.768295	0.000000	-0.073318	0.000000	0.000003	-0.000001	0.000000	0.000000
46.818990	17.388181	15.894271	0.977543	-1.172739	2.705756	0.000000	-0.154150	0.000000	0.000003	-0.000001	0.000000	0.000000
47.368050	16.054049	17.525666	1.437921	-1.816050	2.599522	0.000000	-0.232248	0.000000	0.000002	-0.000001	0.000000	0.000000
47.917110	14.267455	19.929955	1.796732	-2.588716	2.451477	0.000000	-0.306227	0.000000	0.000002	-0.000001	0.000000	0.000000
48.363070	12.877089	22.067616	1.332004	-2.184525	2.330205	0.000000	-0.237925	0.000000	0.000001	-0.000001	0.000000	0.000000
48.804030	11.882570	23.779205	0.931901	-1.682212	2.239751	0.000000	-0.172729	0.000000	0.000001	-0.000001	0.000000	0.000000
49.244990	11.220874	25.012223	0.574373	-1.103359	2.177584	0.000000	-0.109501	0.000000	0.000001	-0.000001	0.000000	0.000000
49.685950	10.861768	25.710567	0.243087	-0.474305	2.142998	0.000000	-0.047520	0.000000	0.000001	-0.000001	0.000000	0.000000
50.128160	10.788975	25.842181	-0.050751	0.112908	2.135608	0.000000	0.008683	0.000000	0.000000	-0.000001	0.000000	0.000000
50.425482	10.827369	25.778505	-0.078380	0.101256	2.138190	0.000000	0.008683	0.000000	0.000000	-0.000001	0.000000	0.000000
50.758816	10.889947	25.715356	-0.109356	0.088193	2.141084	0.000000	0.008683	0.000000	-0.000000	-0.000001	0.000000	0.000000
51.092149	10.973176	25.660915	-0.140331	0.075130	2.143979	0.000000	0.008683	0.000000	-0.000000	-0.000001	0.000000	0.000000
51.426732	11.077259	25.615547	-0.081557	-0.145788	2.146863	0.000000	-0.008733	0.000000	-0.000001	-0.000001	0.000000	0.000000
51.724055	11.133790	25.705764	-0.081272	-0.220681	2.144266	0.000000	-0.013992	0.000000	-0.000001	-0.000001	0.000000	0.000000
52.165015	11.350824	25.614412	-0.412782	0.427057	2.151685	0.000000	0.047672	0.000000	-0.000001	-0.000001	0.000000	0.000000
52.605975	11.867403	24.958226	-0.763150	1.055365	2.186389	0.000000	0.109878	0.000000	-0.000001	-0.000001	0.000000	0.000000
53.046935	12.707127	23.767062	-1.148384	1.635655	2.248773	0.000000	0.173337	0.000000	-0.000002	-0.000001	0.000000	0.000000
53.487895	13.908361	22.095115	-1.586084	2.141523	2.339548	0.000000	0.238769	0.000000	-0.000002	-0.000001	0.000000	0.000000
53.933855	15.546576	19.993460	-2.100481	2.551290	2.461252	0.000000	0.307319	0.000000	-0.000002	-0.000001	0.000000	0.000000
54.482915	17.655707	17.628596	-1.718131	1.781247	2.609809	0.000000	0.233015	0.000000	-0.000003	-0.000001	0.000000	0.000000
55.031975	19.275442	16.035117	-1.214421	1.138079	2.716373	0.000000	0.154579	0.000000	-0.000003	-0.000001	0.000000	0.000000
55.581035	20.291370	15.099521	-0.624931	0.575974	2.779052	0.000000	0.073400	0.000000	-0.000004	-0.000001	0.000000	0.000000
56.130095	20.631731	14.755170	0.008702	0.054894	2.796736	0.000000	-0.009081	0.000000	-0.000004	-0.000000	0.000000	0.000000
56.428668	20.663056	14.705462	-0.059708	0.073036	2.796207	0.000000	-0.001773	0.000000	-0.000004	-0.000000	0.000000	0.000000
56.762001	20.708258	14.664367	-0.075897	0.050248	2.795616	0.000000	-0.001773	0.000000	-0.000004	-0.000000	0.000000	0.000000
57.095334	20.764253	14.638465	-0.092087	0.027460	2.795025	0.000000	-0.001773	0.000000	-0.000004	-0.000000	0.000000	0.000000
57.429918	20.831311	14.627743	-0.108337	0.004586	2.794432	0.000000	-0.001773	0.000000	-0.000004	-0.000000	0.000000	0.000000
57.727240	20.900026	14.631060	-0.177387	0.022489	2.793904	0.000000	0.005527	0.000000	-0.000005	-0.000000	0.000000	0.000000
58.276300	20.738240	14.887343	0.470303	-0.492011	2.774301	0.000000	-0.076831	0.000000	-0.000005	-0.000000	0.000000	0.000000
58.825360	19.879325	15.724422	1.084774	-1.041556	2.709786	0.000000	-0.157826	0.000000	-0.000005	-0.000000	0.000000	0.000000
59.374420	18.383951	17.201921	1.622621	-1.665289	2.601503	0.000000	-0.236022	0.000000	-0.000005	0.000000	0.000000	0.000000
59.923480	16.357743	19.425079	2.045855	-2.407637	2.451374	0.000000	-0.310031	0.000000	-0.000005	0.000000	0.000000	0.000000
60.369440	14.771817	21.401068	1.522945	-2.004525	2.328402	0.000000	-0.241753	0.000000	-0.000005	0.000000	0.000000	0.000000
60.810400	13.631074	22.957453	1.073822	-1.511583	2.236246	0.000000	-0.176626	0.000000	-0.000005	-0.000000	0.000000	0.000000
61.251360	12.863374	24.046999	0.673758	-0.949864	2.172337	0.000000	-0.113511	0.000000	-0.000005	-0.000000	0.000000	0.000000
61.692320	12.433642	24.620131	0.304476	-0.344927	2.135949	0.000000	-0.051688	0.000000	-0.000005	-0.000000	0.000000	0.000000
62.134530	12.322298	24.650234	-0.020777	0.215197	2.126672	0.000000	0.004331	0.000000	-0.000005	-0.000000	0.000000	0.000000
62.431853	12.341830	24.526020	-0.044917	0.202577	2.127960	0.000000	0.004331	0.000000	-0.000005	-0.000000	0.000000	0.000000
62.765186	12.380795	24.395685	-0.071980	0.188428	2.129403	0.000000	0.004331	0.000000	-0.000005	-0.000000	0.000000	0.000000
63.098520	12.437803	24.274783	-0.099042	0.174279	2.130847	0.000000	0.004331	0.000000	-0.000006	-0.000000	0.000000	0.000000
63.433103	12.513167	24.162913	-0.126207	0.160077	2.132296	0.000000	0.004331	0.000000	-0.000006	-0.000000	0.000000	0.000000
63.730426	12.595393	24.071476	-0.119457	0.088423	2.133584	0.000000	-0.000902	0.000000	-0.000006	-0.000000	0.000000	0.000000
64.171386	12.861124	23.728388	-0.485449	0.686664	2.146725	0.000000	0.060560	0.000000	-0.000006	-0.000001	0.000000	0.000000
64.612346	13.458154	22.869513	-0.873621	1.253662	2.187095	0.000000	0.122712	0.000000	-0.000006	-0.000001	0.000000	0.000000
65.053306	14.413761	21.533931	-1.301705	1.763619	2.255153	0.000000	0.186261	0.000000	-0.000007	-0.000001	0.000000	0.000000
65.494266	15.771601	19.782408	-1.789261	2.193333	2.351674	0.000000	0.251932	0.000000	-0.000007	-0.000001	0.000000	0.000000
65.940226	17.616876	17.669850	-2.363255	2.524007	2.479331	0.000000	0.320874	0.000000	-0.000008	-0.000001	0.000000	0.000000
66.489286	19.982292	15.306524	-1.919363	1.805712	2.635148	0.000000	0.245867	0.000000	-0.000008	-0.000001	0.000000	0.000000
67.038346	21.782478	13.657141	-1.339897	1.216033	2.748522	0.000000	0.166499	0.000000	-0.000009	-0.000001	0.000000	0.000000
67.587406	22.890277	12.604218	-0.665788	0.712970	2.817442	0.000000	0.084177	0.000000	-0.000009	-0.000000	0.000000	0.000000
68.136466	23.227439	12.072757	0.055350	0.260690	2.840685	0.000000	0.000363	0.000000	-0.000009	-0.000000	0.000000	0.000000
68.435038	23.234469	11.906264	-0.018199	0.265393	2.843010	0.000000	0.007785	0.000000	-0.000010	-0.000000	0.000000	0.000000
68.768372	23.251385	11.739325	-0.032550	0.235425	2.845605	0.000000	0.007785	0.000000	-0.000010	-0.000000	0.000000	0.000000
69.101705	23.277869	11.592364	-0.046901	0.205457	2.848200	0.000000	0.007785	0.000000	-0.000010	-0.000000	0.000000	0.000000
69.436288	23.314073	11.464944	-0.061306	0.175376	2.850805	0.000000	0.007785	0.000000	-0.000010	-0.000000	0.000000	0.000000
69.733611	23.354335	11.368605	-0.135133	0.178351	2.853120	0.000000	0.015241	0.000000	-0.000010	-0.000000	0.000000	0.000000
70.282671	23.101632	11.400399	0.592654	-0.236598	2.838308	0.000000	-0.069113	0.000000	-0.000010	0.000000	0.000000	0.000000
