#ParticleID	Turn	x[m]	xp	y[m]	yp	z[m]	dE[GeV]# s	beta_x	beta_y	alpha_x	alpha_y	D_x	D_y	D_px	D_py	orbit_x	orbit_px	orbit_y	orbit_py
0.300000	11.827741	24.962901	-0.012778	-0.027711	2.618194	0.000000	-0.000018	0.000000	-0.000001	0.000000	0.000000	0.000000
0.601250	11.843115	24.983235	-0.038252	-0.039788	2.618189	0.000000	-0.000018	0.000000	-0.000000	0.000000	0.000000	0.000000
0.898573	11.873336	25.010439	-0.034277	-0.113041	2.618183	0.000000	-0.006439	0.000000	-0.000000	0.000000	0.000000	0.000000
1.339533	12.055869	24.832729	-0.381236	0.514513	2.631638	0.000000	0.067520	0.000000	-0.000000	0.000000	0.000000	0.000000
1.780493	12.550886	24.109815	-0.745613	1.118657	2.677843	0.000000	0.142248	0.000000	-0.000000	0.000000	0.000000	0.000000
2.221453	13.381004	22.874590	-1.144054	1.671903	2.757326	0.000000	0.218596	0.000000	0.000000	0.000000	0.000000	0.000000
2.662413	14.584149	21.183254	-1.594764	2.149079	2.870992	0.000000	0.297434	0.000000	0.000000	0.000000	0.000000	0.000000
3.108373	16.236083	19.087955	-2.122632	2.529603	3.021997	0.000000	0.380149	0.000000	0.000000	0.000000	0.000000	0.000000
3.657433	18.354373	16.734716	-1.712560	1.781638	3.205450	0.000000	0.287111	0.000000	0.000001	0.000000	0.000000	0.000000
4.206493	19.952860	15.128744	-1.181522	1.160574	3.336343	0.000000	0.188980	0.000000	0.000001	0.000000	0.000000	0.000000
4.755553	20.918635	14.155652	-0.567027	0.622176	3.412357	0.000000	0.087498	0.000000	0.000001	0.000000	0.000000	0.000000
5.304613	21.183481	13.746127	0.087520	0.128093	3.432141	0.000000	-0.015537	0.000000	0.000001	0.000000	0.000000	0.000000
5.603185	21.168482	13.654849	0.018063	0.141704	3.430180	0.000000	-0.006569	0.000000	0.000001	0.000000	0.000000	0.000000
5.936519	21.161690	13.568680	0.002311	0.116803	3.427990	0.000000	-0.006569	0.000000	0.000001	0.000000	0.000000	0.000000
6.269852	21.165400	13.499112	-0.013440	0.091901	3.425800	0.000000	-0.006569	0.000000	0.000001	0.000000	0.000000	0.000000
6.604435	21.179684	13.445978	-0.029251	0.066906	3.423602	0.000000	-0.006569	0.000000	0.000001	0.000000	0.000000	0.000000
6.901758	21.201256	13.412796	-0.098696	0.079740	3.421649	0.000000	0.002371	0.000000	0.000001	0.000000	0.000000	0.000000
7.450818	20.948241	13.585789	0.556783	-0.396671	3.394750	0.000000	-0.100209	0.000000	0.000001	0.000000	0.000000	0.000000
7.999878	19.992868	14.294291	1.172933	-0.901336	3.311934	0.000000	-0.201010	0.000000	0.000002	0.000000	0.000000	0.000000
8.548938	18.402620	15.588766	1.706233	-1.470201	3.174671	0.000000	-0.298247	0.000000	0.000002	0.000000	0.000000	0.000000
9.097998	16.289823	17.561417	2.119013	-2.143785	2.985395	0.000000	-0.390193	0.000000	0.000002	0.000000	0.000000	0.000000
9.543958	14.641353	19.319204	1.590581	-1.781135	2.829690	0.000000	-0.308489	0.000000	0.000002	0.000000	0.000000	0.000000
9.984918	13.442216	20.700170	1.139114	-1.338674	2.710905	0.000000	-0.230782	0.000000	0.000002	0.000000	0.000000	0.000000
10.425878	12.616869	21.662469	0.739690	-0.835304	2.625774	0.000000	-0.155703	0.000000	0.000002	0.000000	0.000000	0.000000
10.866838	12.127606	22.162318	0.374061	-0.293929	2.573327	0.000000	-0.082398	0.000000	0.000002	0.000000	0.000000	0.000000
11.309048	11.951935	22.176457	0.054726	0.206378	2.552947	0.000000	-0.016292	0.000000	0.000002	0.000000	0.000000	0.000000
11.606371	11.926811	22.057892	0.029775	0.192399	2.548103	0.000000	-0.016292	0.000000	0.000002	0.000000	0.000000	0.000000
12.086371	11.917563	21.884020	-0.010507	0.169833	2.540283	0.000000	-0.016292	0.000000	0.000002	0.000000	0.000000	0.000000
12.566371	11.946984	21.731813	-0.050788	0.147266	2.532462	0.000000	-0.016292	0.000000	0.000002	0.000000	0.000000	0.000000
13.046371	12.015075	21.601269	-0.091069	0.124700	2.524642	0.000000	-0.016292	0.000000	0.000002	0.000000	0.000000	0.000000
13.526371	12.121836	21.492389	-0.131350	0.102134	2.516822	0.000000	-0.016292	0.000000	0.000003	0.000000	0.000000	0.000000
14.007621	12.267696	21.404974	-0.171736	0.079508	2.508981	0.000000	-0.016292	0.000000	0.000003	0.000000	0.000000	0.000000
14.304943	12.377237	21.361850	-0.166335	0.013146	2.504137	0.000000	-0.022433	0.000000	0.000003	0.000000	0.000000	0.000000
14.745903	12.682622	21.116427	-0.528838	0.541302	2.509876	0.000000	0.048487	0.000000	0.000003	0.000000	0.000000	0.000000
15.186863	13.317111	20.414336	-0.915502	1.044828	2.546979	0.000000	0.119958	0.000000	0.000003	0.000000	0.000000	0.000000
15.627823	14.309692	19.287520	-1.343993	1.500816	2.615869	0.000000	0.192796	0.000000	0.000003	0.000000	0.000000	0.000000
16.068783	15.705714	17.787250	-1.833887	1.888518	2.717331	0.000000	0.267830	0.000000	0.000004	0.000001	0.000000	0.000000
16.514743	17.592611	15.960285	-2.412324	2.191043	2.854215	0.000000	0.346376	0.000000	0.000004	0.000001	0.000000	0.000000
17.063803	20.015850	13.920199	-1.974981	1.546486	3.020668	0.000000	0.259050	0.000000	0.000004	0.000001	0.000000	0.000000
17.612863	21.878922	12.523636	-1.398136	1.012081	3.137839	0.000000	0.167129	0.000000	0.000004	0.000000	0.000000	0.000000
18.161923	23.050231	11.671120	-0.722533	0.549766	3.203650	0.000000	0.072243	0.000000	0.000005	0.000000	0.000000	0.000000
18.710983	23.447039	11.301930	0.004106	0.126608	3.216935	0.000000	-0.023923	0.000000	0.000005	0.000000	0.000000	0.000000
19.009556	23.484983	11.216773	-0.069930	0.129075	3.212302	0.000000	-0.015519	0.000000	0.000005	0.000000	0.000000	0.000000
19.342889	23.536358	11.140794	-0.084193	0.098863	3.207129	0.000000	-0.015519	0.000000	0.000005	0.000000	0.000000	0.000000
19.676223	23.597241	11.084956	-0.098456	0.068650	3.201956	0.000000	-0.015519	0.000000	0.000005	0.000000	0.000000	0.000000
20.010806	23.668207	11.049028	-0.230038	0.093068	3.196783	0.000000	0.000320	0.000000	0.000005	0.000000	0.000000	0.000000
20.308129	23.808931	11.001755	-0.305470	0.094670	3.196878	0.000000	0.008673	0.000000	0.000005	0.000000	0.000000	0.000000
20.857189	23.733738	11.120284	0.441608	-0.311820	3.175423	0.000000	-0.086712	0.000000	0.000005	0.000000	0.000000	0.000000
21.406249	22.850508	11.694691	1.157493	-0.740520	3.101941	0.000000	-0.180559	0.000000	0.000005	-0.000000	0.000000	0.000000
21.955309	21.221626	12.765891	1.791618	-1.221966	2.977736	0.000000	-0.271203	0.000000	0.000005	-0.000000	0.000000	0.000000
22.504369	18.962150	14.410182	2.299193	-1.790450	2.805012	0.000000	-0.357036	0.000000	0.000005	-0.000000	0.000000	0.000000
22.950329	17.181608	15.886314	1.707507	-1.505596	2.663080	0.000000	-0.279832	0.000000	0.000004	-0.000000	0.000000	0.000000
23.391289	15.905005	17.063170	1.198528	-1.153097	2.556007	0.000000	-0.206269	0.000000	0.000004	-0.000000	0.000000	0.000000
23.832249	15.051530	17.904738	0.744308	-0.748132	2.480823	0.000000	-0.135055	0.000000	0.000004	-0.000000	0.000000	0.000000
24.273209	14.582189	18.372728	0.324092	-0.309128	2.436673	0.000000	-0.065380	0.000000	0.000004	-0.000000	0.000000	0.000000
24.715418	14.475654	18.445601	-0.045906	0.098640	2.423051	0.000000	-0.002391	0.000000	0.000004	0.000000	0.000000	0.000000
25.012741	14.509071	18.391784	-0.066489	0.082364	2.422340	0.000000	-0.002391	0.000000	0.000004	0.000000	0.000000	0.000000
25.346075	14.561089	18.342957	-0.089564	0.064117	2.421543	0.000000	-0.002391	0.000000	0.000004	0.000000	0.000000	0.000000
25.679408	14.628490	18.306295	-0.112640	0.045870	2.420746	0.000000	-0.002391	0.000000	0.000004	0.000000	0.000000	0.000000
26.013991	14.711317	18.282099	-0.016454	-0.120759	2.419921	0.000000	-0.022023	0.000000	0.000004	0.000000	0.000000	0.000000
26.311314	14.727112	18.358813	-0.000557	-0.182278	2.413373	0.000000	-0.027941	0.000000	0.000004	0.000000	0.000000	0.000000
26.752274	14.909070	18.320420	-0.413649	0.269014	2.416161	0.000000	0.040600	0.000000	0.000004	0.000000	0.000000	0.000000
27.193234	15.462267	17.887922	-0.845640	0.708065	2.449247	0.000000	0.109604	0.000000	0.000004	0.000000	0.000000	0.000000
27.634194	16.411979	17.080996	-1.316266	1.114901	2.513006	0.000000	0.179856	0.000000	0.000004	0.000000	0.000000	0.000000
28.075154	17.801594	15.936357	-1.847029	1.471009	2.608166	0.000000	0.252157	0.000000	0.000005	0.000000	0.000000	0.000000
28.521114	19.718747	14.488846	-2.467134	1.761102	2.737412	0.000000	0.327773	0.000000	0.000005	0.000001	0.000000	0.000000
29.070174	22.155458	12.875903	-1.944563	1.193883	2.894716	0.000000	0.244379	0.000000	0.000005	0.000000	0.000000	0.000000
29.619234	23.939040	11.835762	-1.284637	0.711703	3.004973	0.000000	0.156651	0.000000	0.000005	0.000000	0.000000	0.000000
30.168294	24.943511	11.294335	-0.533970	0.280215	3.066227	0.000000	0.066145	0.000000	0.000006	0.000000	0.000000	0.000000
30.717354	25.097919	11.213058	0.254413	-0.131313	3.077392	0.000000	-0.025535	0.000000	0.000006	-0.000000	0.000000	0.000000
31.015927	24.988833	11.282010	0.176519	-0.128921	3.072169	0.000000	-0.017495	0.000000	0.000005	-0.000000	0.000000	0.000000
31.349260	24.875738	11.377970	0.162764	-0.158958	3.066337	0.000000	-0.017495	0.000000	0.000005	-0.000000	0.000000	0.000000
31.682593	24.771814	11.493954	0.149009	-0.188994	3.060505	0.000000	-0.017495	0.000000	0.000005	-0.000000	0.000000	0.000000
32.017177	24.676721	11.630510	0.135203	-0.219144	3.054652	0.000000	-0.017495	0.000000	0.000005	-0.000000	0.000000	0.000000
32.314499	24.599972	11.768789	0.058661	-0.215187	3.049450	0.000000	-0.009528	0.000000	0.000005	-0.000000	0.000000	0.000000
32.863559	24.114134	12.244413	0.820953	-0.656178	3.019339	0.000000	-0.099995	0.000000	0.000005	-0.000000	0.000000	0.000000
33.412619	22.818252	13.226967	1.525257	-1.143906	2.939969	0.000000	-0.188689	0.000000	0.000005	-0.000000	0.000000	0.000000
33.961679	20.803861	14.786436	2.121825	-1.713112	2.812750	0.000000	-0.274036	0.000000	0.000005	-0.000001	0.000000	0.000000
34.510739	18.213246	17.033899	2.568517	-2.404340	2.639938	0.000000	-0.354523	0.000000	0.000005	-0.000001	0.000000	0.000000
34.956699	16.199048	19.044112	1.964212	-2.084447	2.498176	0.000000	-0.281598	0.000000	0.000004	-0.000001	0.000000	0.000000
35.397659	14.697164	20.706202	1.454650	-1.670463	2.389383	0.000000	-0.212309	0.000000	0.000004	-0.000000	0.000000	0.000000
35.838619	13.613779	21.968153	1.011548	-1.180473	2.310582	0.000000	-0.145437	0.000000	0.000004	-0.000000	0.000000	0.000000
36.279579	12.899396	22.772546	0.614660	-0.636773	2.260876	0.000000	-0.080223	0.000000	0.000004	-0.000000	0.000000	0.000000
36.721789	12.520686	23.083086	0.276452	-0.120759	2.239672	0.000000	-0.021413	0.000000	0.000004	-0.000000	0.000000	0.000000
37.019112	12.363895	23.158780	0.250891	-0.133827	2.233305	0.000000	-0.021413	0.000000	0.000003	-0.000000	0.000000	0.000000
37.352445	12.206187	23.252882	0.222234	-0.148478	2.226167	0.000000	-0.021413	0.000000	0.000003	-0.000000	0.000000	0.000000
37.685779	12.067583	23.356751	0.193576	-0.163130	2.219030	0.000000	-0.021413	0.000000	0.000003	-0.000000	0.000000	0.000000
38.020362	11.947673	23.470833	0.164812	-0.177836	2.211865	0.000000	-0.021413	0.000000	0.000003	-0.000000	0.000000	0.000000
38.317684	11.857268	23.580467	0.168327	-0.248729	2.205498	0.000000	-0.026822	0.000000	0.000003	-0.000000	0.000000	0.000000
38.758644	11.860048	23.538659	-0.174654	0.343180	2.207598	0.000000	0.036352	0.000000	0.000003	-0.000000	0.000000	0.000000
39.199604	12.167672	22.979752	-0.525615	0.919474	2.237619	0.000000	0.099939	0.000000	0.000003	-0.000000	0.000000	0.000000
39.640564	12.794194	21.929177	-0.900590	1.453933	2.295903	0.000000	0.164665	0.000000	0.000003	0.000000	0.000000	0.000000
40.081524	13.768240	20.434733	-1.316710	1.922239	2.383115	0.000000	0.231267	0.000000	0.000003	0.000000	0.000000	0.000000
40.527484	15.151875	18.541850	-1.796811	2.304364	2.501720	0.000000	0.300907	0.000000	0.000003	0.000000	0.000000	0.000000
41.076544	16.917760	16.414808	-1.400346	1.592472	2.646408	0.000000	0.225355	0.000000	0.000003	0.000000	0.000000	0.000000
41.625604	18.191052	15.003008	-0.904967	0.994010	2.748452	0.000000	0.145805	0.000000	0.000003	-0.000000	0.000000	0.000000
42.174664	18.881814	14.205889	-0.345666	0.466348	2.806044	0.000000	0.063670	0.000000	0.000003	-0.000000	0.000000	0.000000
42.723724	18.941253	13.966675	0.238051	-0.028097	2.818162	0.000000	-0.019596	0.000000	0.000003	-0.000000	0.000000	0.000000
43.022297	18.833527	13.968045	0.172239	-0.012984	2.814510	0.000000	-0.012232	0.000000	0.000003	-0.000000	0.000000	0.000000
43.502297	18.680774	13.997008	0.145996	-0.047354	2.808638	0.000000	-0.012232	0.000000	0.000003	-0.000000	0.000000	0.000000
43.982297	18.553214	14.058966	0.119754	-0.081724	2.802767	0.000000	-0.012232	0.000000	0.000003	-0.000000	0.000000	0.000000
44.462297	18.450847	14.153919	0.093511	-0.116094	2.796896	0.000000	-0.012232	0.000000	0.000003	-0.000000	0.000000	0.000000
44.942297	18.373673	14.281867	0.067269	-0.150464	2.791024	0.000000	-0.012232	0.000000	0.000003	-0.000000	0.000000	0.000000
45.423547	18.321816	14.443093	-0.049819	-0.113364	2.785155	0.000000	0.001567	0.000000	0.000002	-0.000000	0.000000	0.000000
45.720870	18.356277	14.516704	-0.114047	-0.096285	2.785621	0.000000	0.008845	0.000000	0.000002	-0.000000	0.000000	0.000000
46.269930	18.172425	14.903269	0.446914	-0.611920	2.767907	0.000000	-0.073275	0.000000	0.000002	-0.000000	0.000000	0.000000
46.818990	17.386337	15.876531	0.976307	-1.171140	2.705395	0.000000	-0.154095	0.000000	0.000002	-0.000000	0.000000	0.000000
47.368050	16.053540	17.505813	1.436739	-1.813778	2.599194	0.000000	-0.232182	0.000000	0.000002	-0.000000	0.000000	0.000000
47.917110	14.268176	19.907164	1.795687	-2.585607	2.451188	0.000000	-0.306151	0.000000	0.000002	-0.000000	0.000000	0.000000
48.363070	12.878702	22.042265	1.331041	-2.181916	2.329948	0.000000	-0.237856	0.000000	0.000001	-0.000000	0.000000	0.000000
48.804030	11.885013	23.751817	0.930974	-1.680219	2.239522	0.000000	-0.172667	0.000000	0.000001	-0.000000	0.000000	0.000000
49.244990	11.224133	24.983383	0.573441	-1.102073	2.177382	0.000000	-0.109444	0.000000	0.000001	-0.000000	0.000000	0.000000
49.685950	10.865869	25.680928	0.242107	-0.473784	2.142819	0.000000	-0.047468	0.000000	0.000001	-0.000000	0.000000	0.000000
50.128160	10.793980	25.812431	-0.051813	0.112713	2.135451	0.000000	0.008731	0.000000	0.000001	-0.000000	0.000000	0.000000
50.425482	10.833002	25.748875	-0.079432	0.101048	2.138047	0.000000	0.008731	0.000000	0.000001	-0.000000	0.000000	0.000000
50.758816	10.896279	25.685869	-0.110397	0.087970	2.140958	0.000000	0.008731	0.000000	0.000001	-0.000000	0.000000	0.000000
51.092149	10.980198	25.631582	-0.141361	0.074892	2.143868	0.000000	0.008731	0.000000	0.000000	-0.000000	0.000000	0.000000
51.426732	11.084966	25.586378	-0.082513	-0.145804	2.146768	0.000000	-0.008685	0.000000	0.000000	-0.000000	0.000000	0.000000
51.724055	11.142061	25.676607	-0.082194	-0.220638	2.144186	0.000000	-0.013943	0.000000	0.000000	-0.000000	0.000000	0.000000
52.165015	11.359999	25.585559	-0.413916	0.426331	2.151626	0.000000	0.047719	0.000000	0.000000	-0.000000	0.000000	0.000000
52.605975	11.877690	24.930342	-0.764548	1.053901	2.186351	0.000000	0.109925	0.000000	-0.000000	-0.000000	0.000000	0.000000
53.046935	12.718787	23.740770	-1.150110	1.633520	2.248755	0.000000	0.173382	0.000000	-0.000000	-0.000000	0.000000	0.000000
53.487895	13.921716	22.070967	-1.588217	2.138815	2.339549	0.000000	0.238814	0.000000	-0.000000	-0.000000	0.000000	0.000000
53.933855	15.562052	19.971939	-2.103122	2.548130	2.461273	0.000000	0.307365	0.000000	-0.000000	-0.000000	0.000000	0.000000
54.482915	17.673888	17.610081	-1.720384	1.778901	2.609855	0.000000	0.233060	0.000000	-0.000001	-0.000000	0.000000	0.000000
55.031975	19.295809	16.018811	-1.216126	1.136378	2.716442	0.000000	0.154621	0.000000	-0.000001	-0.000000	0.000000	0.000000
55.581035	20.313251	15.084786	-0.625967	0.574798	2.779144	0.000000	0.073440	0.000000	-0.000001	-0.000000	0.000000	0.000000
56.130095	20.654348	14.741477	0.008407	0.054159	2.796849	0.000000	-0.009044	0.000000	-0.000001	-0.000000	0.000000	0.000000
56.428668	20.685879	14.692236	-0.060045	0.072248	2.796330	0.000000	-0.001737	0.000000	-0.000001	-0.000000	0.000000	0.000000
56.762001	20.731300	14.651673	-0.076217	0.049442	2.795751	0.000000	-0.001737	0.000000	-0.000001	-0.000000	0.000000	0.000000
57.095334	20.787502	14.626313	-0.092390	0.026636	2.795173	0.000000	-0.001737	0.000000	-0.000001	-0.000000	0.000000	0.000000
57.429918	20.854757	14.616149	-0.108622	0.003744	2.794592	0.000000	-0.001737	0.000000	-0.000001	-0.000000	0.000000	0.000000
57.727240	20.923638	14.619971	-0.177718	0.021601	2.794075	0.000000	0.005564	0.000000	-0.000002	-0.000000	0.000000	0.000000
58.276300	20.761779	14.877058	0.470766	-0.492596	2.774490	0.000000	-0.076800	0.000000	-0.000002	-0.000000	0.000000	0.000000
58.825360	19.901932	15.714634	1.085998	-1.041880	2.709990	0.000000	-0.157801	0.000000	-0.000002	-0.000000	0.000000	0.000000
59.374420	18.404832	17.192357	1.624520	-1.665375	2.601720	0.000000	-0.236004	0.000000	-0.000002	-0.000000	0.000000	0.000000
59.923480	16.376228	19.415482	2.048294	-2.407491	2.451599	0.000000	-0.310020	0.000000	-0.000002	-0.000000	0.000000	0.000000
60.369440	14.788374	21.391480	1.524844	-2.004691	2.328633	0.000000	-0.241736	0.000000	-0.000002	-0.000000	0.000000	0.000000
60.810400	13.646160	22.948146	1.075271	-1.512051	2.236485	0.000000	-0.176603	0.000000	-0.000002	-0.000000	0.000000	0.000000
61.251360	12.877355	24.038230	0.674825	-0.950613	2.172588	0.000000	-0.113481	0.000000	-0.000002	-0.000000	0.000000	0.000000
61.692320	12.446833	24.612134	0.305208	-0.345923	2.136214	0.000000	-0.051652	0.000000	-0.000002	-0.000000	0.000000	0.000000
62.134530	12.334975	24.643211	-0.020315	0.214018	2.126954	0.000000	0.004373	0.000000	-0.000002	-0.000000	0.000000	0.000000
62.431853	12.354225	24.519698	-0.044429	0.201401	2.128254	0.000000	0.004373	0.000000	-0.000002	-0.000000	0.000000	0.000000
62.765186	12.392857	24.390146	-0.071464	0.187255	2.129712	0.000000	0.004373	0.000000	-0.000002	-0.000000	0.000000	0.000000
63.098520	12.449511	24.270025	-0.098499	0.173109	2.131170	0.000000	0.004373	0.000000	-0.000002	-0.000000	0.000000	0.000000
63.433103	12.524502	24.158937	-0.125635	0.158910	2.132633	0.000000	0.004373	0.000000	-0.000002	-0.000000	0.000000	0.000000
63.730426	12.606380	24.068194	-0.118833	0.087268	2.133933	0.000000	-0.000860	0.000000	-0.000003	-0.000000	0.000000	0.000000
64.171386	12.871666	23.726153	-0.485061	0.685452	2.147095	0.000000	0.060611	0.000000	-0.000003	-0.000000	0.000000	0.000000
64.612346	13.468451	22.868353	-0.873449	1.252448	2.187489	0.000000	0.122773	0.000000	-0.000003	-0.000000	0.000000	0.000000
65.053306	14.423999	21.533821	-1.301743	1.762459	2.255576	0.000000	0.186333	0.000000	-0.000003	-0.000000	0.000000	0.000000
65.494266	15.781966	19.783278	-1.789510	2.192279	2.352131	0.000000	0.252015	0.000000	-0.000003	-0.000001	0.000000	0.000000
65.940226	17.627562	17.671593	-2.363729	2.523110	2.479826	0.000000	0.320969	0.000000	-0.000004	-0.000001	0.000000	0.000000
66.489286	19.993274	15.309206	-1.919424	1.804891	2.635691	0.000000	0.245945	0.000000	-0.000004	-0.000001	0.000000	0.000000
67.038346	21.793297	13.660709	-1.339541	1.215230	2.749103	0.000000	0.166559	0.000000	-0.000004	-0.000000	0.000000	0.000000
67.587406	22.900486	12.608684	-0.665040	0.712127	2.818050	0.000000	0.084218	0.000000	-0.000004	-0.000000	0.000000	0.000000
68.136466	23.236636	12.078198	0.056436	0.259748	2.841310	0.000000	0.000383	0.000000	-0.000004	-0.000000	0.000000	0.000000
68.435038	23.243027	11.912252	-0.017128	0.264490	2.843641	0.000000	0.007807	0.000000	-0.000004	-0.000000	0.000000	0.000000
68.768372	23.259228	11.745905	-0.031474	0.234550	2.846243	0.000000	0.007807	0.000000	-0.000004	-0.000000	0.000000	0.000000
69.101705	23.284992	11.599519	-0.045819	0.204610	2.848846	0.000000	0.007807	0.000000	-0.000005	-0.000000	0.000000	0.000000
69.436288	23.320471	11.472656	-0.060218	0.174558	2.851458	0.000000	0.007807	0.000000	-0.000005	-0.000000	0.000000	0.000000
69.733611	23.360084	11.376796	-0.134052	0.177579	2.853779	0.000000	0.015264	0.000000	-0.000005	-0.000000	0.000000	0.000000
70.282671	23.106100	11.409566	0.593893	-0.237616	2.838975	0.000000	-0.069112	0.000000	-0.000005	0.000000	0.000000	0.000000
