#ParticleID	Turn	x[m]	xp	y[m]	yp	z[m]	dE[GeV]# s	beta_x	beta_y	alpha_x	alpha_y	D_x	D_y	D_px	D_py	orbit_x	orbit_px	orbit_y	orbit_py
0.300000	11.822694	24.982519	-0.012090	-0.027599	2.618098	0.000000	0.000018	0.000000	-0.000000	0.000001	0.000000	0.000000
0.601250	11.837655	25.002783	-0.037574	-0.039667	2.618103	0.000000	0.000018	0.000000	-0.000000	0.000001	0.000000	0.000000
0.898573	11.867476	25.029912	-0.033624	-0.112958	2.618108	0.000000	-0.006402	0.000000	0.000000	0.000001	0.000000	0.000000
1.339533	12.049369	24.851902	-0.380432	0.515109	2.631578	0.000000	0.067555	0.000000	0.000000	0.000001	0.000000	0.000000
1.780493	12.543597	24.128246	-0.744621	1.119738	2.677799	0.000000	0.142282	0.000000	0.000001	0.000001	0.000000	0.000000
2.221453	13.372743	22.891870	-1.142830	1.673421	2.757296	0.000000	0.218629	0.000000	0.000001	0.000001	0.000000	0.000000
2.662413	14.574686	21.199027	-1.593252	2.150964	2.870976	0.000000	0.297466	0.000000	0.000001	0.000001	0.000000	0.000000
3.108373	16.225116	19.101914	-2.120760	2.531771	3.021995	0.000000	0.380181	0.000000	0.000002	0.000001	0.000000	0.000000
3.657433	18.341490	16.746603	-1.710963	1.783265	3.205465	0.000000	0.287142	0.000000	0.000002	0.000001	0.000000	0.000000
4.206493	19.938427	15.139087	-1.180313	1.161777	3.336376	0.000000	0.189011	0.000000	0.000002	0.000001	0.000000	0.000000
4.755553	20.903129	14.164865	-0.566291	0.623041	3.412405	0.000000	0.087527	0.000000	0.000003	0.000001	0.000000	0.000000
5.304613	21.167452	13.754547	0.087730	0.128682	3.432205	0.000000	-0.015509	0.000000	0.000003	0.000000	0.000000	0.000000
5.603185	21.152306	13.662902	0.018305	0.142324	3.430252	0.000000	-0.006542	0.000000	0.000003	0.000000	0.000000	0.000000
5.936519	21.145357	13.576317	0.002541	0.117432	3.428071	0.000000	-0.006542	0.000000	0.000003	0.000000	0.000000	0.000000
6.269852	21.148918	13.506325	-0.013223	0.092541	3.425891	0.000000	-0.006542	0.000000	0.000003	0.000000	0.000000	0.000000
6.604435	21.163061	13.452759	-0.029046	0.067557	3.423702	0.000000	-0.006542	0.000000	0.000003	0.000000	0.000000	0.000000
6.901758	21.184514	13.419188	-0.098457	0.080416	3.421757	0.000000	0.002399	0.000000	0.000004	0.000000	0.000000	0.000000
7.450818	20.931546	13.591536	0.556459	-0.396164	3.394872	0.000000	-0.100185	0.000000	0.000004	0.000000	0.000000	0.000000
7.999878	19.976829	14.299557	1.172069	-0.900962	3.312068	0.000000	-0.200991	0.000000	0.000004	0.000000	0.000000	0.000000
8.548938	18.387799	15.593682	1.704890	-1.469934	3.174815	0.000000	-0.298232	0.000000	0.000004	0.000000	0.000000	0.000000
9.097998	16.276698	17.566090	2.117286	-2.143605	2.985546	0.000000	-0.390183	0.000000	0.000004	-0.000000	0.000000	0.000000
9.543958	14.629593	19.323638	1.589237	-1.780781	2.829847	0.000000	-0.308474	0.000000	0.000004	0.000000	0.000000	0.000000
9.984918	13.431497	20.704221	1.138089	-1.338164	2.711069	0.000000	-0.230763	0.000000	0.000004	0.000000	0.000000	0.000000
10.425878	12.606932	21.666011	0.738937	-0.834662	2.625947	0.000000	-0.155680	0.000000	0.000004	0.000000	0.000000	0.000000
10.866838	12.118226	22.165245	0.373545	-0.293183	2.573511	0.000000	-0.082371	0.000000	0.000004	0.000000	0.000000	0.000000
11.309048	11.942915	22.178691	0.054401	0.207189	2.553144	0.000000	-0.016260	0.000000	0.000004	0.000000	0.000000	0.000000
11.606371	11.917990	22.059643	0.029432	0.193208	2.548310	0.000000	-0.016260	0.000000	0.000005	0.000000	0.000000	0.000000
12.086371	11.909084	21.884998	-0.010878	0.170637	2.540505	0.000000	-0.016260	0.000000	0.000005	0.000000	0.000000	0.000000
12.566371	11.938876	21.732021	-0.051189	0.148065	2.532700	0.000000	-0.016260	0.000000	0.000005	0.000000	0.000000	0.000000
13.046371	12.007366	21.600713	-0.091499	0.125494	2.524895	0.000000	-0.016260	0.000000	0.000005	0.000000	0.000000	0.000000
13.526371	12.114554	21.491073	-0.131809	0.102922	2.517090	0.000000	-0.016260	0.000000	0.000005	0.000000	0.000000	0.000000
14.007621	12.260869	21.402902	-0.172224	0.080292	2.509265	0.000000	-0.016260	0.000000	0.000006	0.000000	0.000000	0.000000
14.304943	12.370705	21.359313	-0.166858	0.013934	2.504430	0.000000	-0.022401	0.000000	0.000006	0.000000	0.000000	0.000000
14.745903	12.676492	21.113230	-0.529229	0.542004	2.510185	0.000000	0.048526	0.000000	0.000006	0.000001	0.000000	0.000000
15.186863	13.311274	20.410569	-0.915779	1.045413	2.547307	0.000000	0.120006	0.000000	0.000006	0.000001	0.000000	0.000000
15.627823	14.304054	19.283300	-1.344168	1.501256	2.616220	0.000000	0.192853	0.000000	0.000007	0.000001	0.000000	0.000000
16.068783	15.700189	17.782713	-1.833968	1.888793	2.717709	0.000000	0.267896	0.000000	0.000007	0.000001	0.000000	0.000000
16.514743	17.587118	15.955581	-2.412315	2.191140	2.854624	0.000000	0.346452	0.000000	0.000008	0.000001	0.000000	0.000000
17.063803	20.010479	13.915345	-1.975212	1.546665	3.021114	0.000000	0.259112	0.000000	0.000008	0.000001	0.000000	0.000000
17.612863	21.873931	12.518533	-1.398591	1.012356	3.138315	0.000000	0.167176	0.000000	0.000009	0.000001	0.000000	0.000000
18.161923	23.045849	11.665655	-0.723180	0.550155	3.204148	0.000000	0.072275	0.000000	0.000009	0.000000	0.000000	0.000000
18.710983	23.443453	11.295961	0.003313	0.127141	3.217445	0.000000	-0.023908	0.000000	0.000009	0.000000	0.000000	0.000000
19.009556	23.481864	11.210502	-0.070714	0.129572	3.212817	0.000000	-0.015503	0.000000	0.000010	0.000000	0.000000	0.000000
19.342889	23.533763	11.134198	-0.084981	0.099339	3.207649	0.000000	-0.015503	0.000000	0.000010	0.000000	0.000000	0.000000
19.676223	23.595172	11.078050	-0.099247	0.069106	3.202482	0.000000	-0.015503	0.000000	0.000010	0.000000	0.000000	0.000000
20.010806	23.666669	11.041824	-0.230825	0.093467	3.197314	0.000000	0.000339	0.000000	0.000010	0.000000	0.000000	0.000000
20.308129	23.807862	10.994320	-0.306257	0.095029	3.197415	0.000000	0.008692	0.000000	0.000010	0.000000	0.000000	0.000000
20.857189	23.733549	11.112338	0.440802	-0.311244	3.175965	0.000000	-0.086710	0.000000	0.000010	-0.000000	0.000000	0.000000
21.406249	22.851187	11.685975	1.156726	-0.739685	3.102480	0.000000	-0.180574	0.000000	0.000010	-0.000000	0.000000	0.000000
21.955309	21.223101	12.756090	1.790944	-1.220813	2.978262	0.000000	-0.271235	0.000000	0.000009	-0.000001	0.000000	0.000000
22.504369	18.964292	14.398905	2.298659	-1.788897	2.805515	0.000000	-0.357085	0.000000	0.000009	-0.000001	0.000000	0.000000
22.950329	17.184221	15.873762	1.706979	-1.504301	2.663565	0.000000	-0.279868	0.000000	0.000009	-0.000001	0.000000	0.000000
23.391289	15.908090	17.049611	1.197983	-1.152117	2.556479	0.000000	-0.206293	0.000000	0.000008	-0.000001	0.000000	0.000000
23.832249	15.055113	17.890472	0.743719	-0.747513	2.481287	0.000000	-0.135067	0.000000	0.000008	-0.000000	0.000000	0.000000
24.273209	14.586319	18.358086	0.323434	-0.308898	2.437134	0.000000	-0.065380	0.000000	0.000008	-0.000000	0.000000	0.000000
24.715418	14.480408	18.430931	-0.046654	0.098509	2.423515	0.000000	-0.002380	0.000000	0.000008	0.000000	0.000000	0.000000
25.012741	14.514269	18.377196	-0.067231	0.082221	2.422807	0.000000	-0.002380	0.000000	0.000008	0.000000	0.000000	0.000000
25.346075	14.566780	18.328470	-0.090301	0.063960	2.422014	0.000000	-0.002380	0.000000	0.000008	0.000000	0.000000	0.000000
25.679408	14.634670	18.291917	-0.113371	0.045699	2.421220	0.000000	-0.002380	0.000000	0.000008	0.000000	0.000000	0.000000
26.013991	14.717984	18.267840	-0.017125	-0.120829	2.420399	0.000000	-0.022016	0.000000	0.000008	0.000000	0.000000	0.000000
26.311314	14.734175	18.344600	-0.001203	-0.182325	2.413853	0.000000	-0.027935	0.000000	0.000008	-0.000000	0.000000	0.000000
26.752274	14.916781	18.306418	-0.414479	0.268583	2.416647	0.000000	0.040619	0.000000	0.000008	0.000000	0.000000	0.000000
27.193234	15.470806	17.874462	-0.846692	0.707271	2.449743	0.000000	0.109635	0.000000	0.000008	0.000000	0.000000	0.000000
27.634194	16.421560	17.068384	-1.317588	1.113779	2.513519	0.000000	0.179900	0.000000	0.000009	0.000001	0.000000	0.000000
28.075154	17.812482	15.924861	-1.848681	1.469610	2.608701	0.000000	0.252215	0.000000	0.000009	0.000001	0.000000	0.000000
28.521114	19.731286	14.478699	-2.469196	1.759489	2.737976	0.000000	0.327845	0.000000	0.000009	0.000001	0.000000	0.000000
29.070174	22.170099	12.867308	-1.946307	1.192652	2.895315	0.000000	0.244433	0.000000	0.000010	0.000001	0.000000	0.000000
29.619234	23.955365	11.828351	-1.285940	0.710765	3.005595	0.000000	0.156685	0.000000	0.000010	0.000000	0.000000	0.000000
30.168294	24.960981	11.287825	-0.534740	0.279504	3.066862	0.000000	0.066158	0.000000	0.000010	0.000000	0.000000	0.000000
30.717354	25.115915	11.207229	0.254230	-0.131849	3.078029	0.000000	-0.025543	0.000000	0.000010	-0.000000	0.000000	0.000000
31.015927	25.006961	11.276515	0.176302	-0.129490	3.072803	0.000000	-0.017501	0.000000	0.000010	-0.000000	0.000000	0.000000
31.349260	24.894007	11.372861	0.162558	-0.159546	3.066970	0.000000	-0.017501	0.000000	0.000010	-0.000000	0.000000	0.000000
31.682593	24.790217	11.489243	0.148814	-0.189601	3.061136	0.000000	-0.017501	0.000000	0.000010	-0.000000	0.000000	0.000000
32.017177	24.695251	11.626212	0.135019	-0.219770	3.055280	0.000000	-0.017501	0.000000	0.000010	-0.000000	0.000000	0.000000
32.314499	24.618607	11.764867	0.058441	-0.215841	3.050077	0.000000	-0.009533	0.000000	0.000010	-0.000000	0.000000	0.000000
32.863559	24.132670	12.241165	0.821354	-0.656757	3.019957	0.000000	-0.100020	0.000000	0.000010	-0.000000	0.000000	0.000000
33.412619	22.836018	13.224333	1.526251	-1.144452	2.940569	0.000000	-0.188734	0.000000	0.000010	-0.000001	0.000000	0.000000
33.961679	20.820240	14.784402	2.123341	-1.713664	2.813320	0.000000	-0.274100	0.000000	0.000009	-0.000001	0.000000	0.000000
34.510739	18.227722	17.032490	2.570448	-2.404936	2.640468	0.000000	-0.354604	0.000000	0.000008	-0.000001	0.000000	0.000000
34.956699	16.211997	19.043287	1.965713	-2.085155	2.498672	0.000000	-0.281666	0.000000	0.000008	-0.000001	0.000000	0.000000
35.397659	14.708951	20.706038	1.455794	-1.671248	2.389852	0.000000	-0.212365	0.000000	0.000007	-0.000001	0.000000	0.000000
35.838619	13.624695	21.968703	1.012386	-1.181301	2.311030	0.000000	-0.145481	0.000000	0.000007	-0.000001	0.000000	0.000000
36.279579	12.909693	22.773832	0.615232	-0.637606	2.261307	0.000000	-0.080255	0.000000	0.000007	-0.000001	0.000000	0.000000
36.721789	12.530586	23.085096	0.276806	-0.121562	2.240091	0.000000	-0.021436	0.000000	0.000006	-0.000000	0.000000	0.000000
37.019112	12.373580	23.161268	0.251260	-0.134632	2.233718	0.000000	-0.021436	0.000000	0.000006	-0.000000	0.000000	0.000000
37.352445	12.215620	23.255907	0.222620	-0.149284	2.226573	0.000000	-0.021436	0.000000	0.000006	-0.000000	0.000000	0.000000
37.685779	12.076753	23.360314	0.193981	-0.163937	2.219427	0.000000	-0.021436	0.000000	0.000006	-0.000000	0.000000	0.000000
38.020362	11.956566	23.474936	0.165233	-0.178645	2.212255	0.000000	-0.021436	0.000000	0.000006	-0.000000	0.000000	0.000000
38.317684	11.865906	23.585052	0.168785	-0.249549	2.205882	0.000000	-0.026845	0.000000	0.000006	-0.000000	0.000000	0.000000
38.758644	11.868368	23.543911	-0.174389	0.342492	2.207973	0.000000	0.036338	0.000000	0.000006	-0.000000	0.000000	0.000000
39.199604	12.175837	22.985541	-0.525529	0.918951	2.237991	0.000000	0.099936	0.000000	0.000005	-0.000000	0.000000	0.000000
39.640564	12.802361	21.935346	-0.900680	1.453597	2.296276	0.000000	0.164671	0.000000	0.000005	-0.000000	0.000000	0.000000
40.081524	13.776565	20.441109	-1.316980	1.922106	2.383492	0.000000	0.231282	0.000000	0.000005	0.000000	0.000000	0.000000
40.527484	15.160526	18.548250	-1.797274	2.304442	2.502106	0.000000	0.300933	0.000000	0.000005	0.000000	0.000000	0.000000
41.076544	16.926745	16.421206	-1.400489	1.592399	2.646804	0.000000	0.225367	0.000000	0.000006	0.000000	0.000000	0.000000
41.625604	18.200014	15.009571	-0.904781	0.993779	2.748852	0.000000	0.145805	0.000000	0.000005	-0.000000	0.000000	0.000000
42.174664	18.890395	14.212798	-0.345163	0.465945	2.806441	0.000000	0.063656	0.000000	0.000005	-0.000000	0.000000	0.000000
42.723724	18.949122	13.974134	0.238836	-0.028702	2.818548	0.000000	-0.019621	0.000000	0.000005	-0.000000	0.000000	0.000000
43.022297	18.840939	13.975851	0.173006	-0.013559	2.814888	0.000000	-0.012257	0.000000	0.000005	-0.000000	0.000000	0.000000
43.502297	18.687448	14.005357	0.146767	-0.047911	2.809005	0.000000	-0.012257	0.000000	0.000005	-0.000000	0.000000	0.000000
43.982297	18.559147	14.067840	0.120528	-0.082262	2.803121	0.000000	-0.012257	0.000000	0.000005	-0.000000	0.000000	0.000000
44.462297	18.456034	14.163300	0.094289	-0.116613	2.797238	0.000000	-0.012257	0.000000	0.000004	-0.000000	0.000000	0.000000
44.942297	18.378112	14.291737	0.068050	-0.150964	2.791355	0.000000	-0.012257	0.000000	0.000004	-0.000000	0.000000	0.000000
45.423547	18.325501	14.453436	-0.049052	-0.113794	2.785473	0.000000	0.001543	0.000000	0.000004	-0.000000	0.000000	0.000000
45.720870	18.359505	14.527298	-0.113284	-0.096675	2.785932	0.000000	0.008822	0.000000	0.000004	-0.000000	0.000000	0.000000
46.269930	18.174761	14.914472	0.447764	-0.612644	2.768203	0.000000	-0.073308	0.000000	0.000004	-0.000001	0.000000	0.000000
46.818990	17.387720	15.888735	0.977184	-1.172250	2.705671	0.000000	-0.154137	0.000000	0.000003	-0.000001	0.000000	0.000000
47.368050	16.053974	17.519482	1.437581	-1.815353	2.599445	0.000000	-0.232233	0.000000	0.000003	-0.000001	0.000000	0.000000
47.917110	14.267732	19.922868	1.796434	-2.587759	2.451409	0.000000	-0.306209	0.000000	0.000002	-0.000001	0.000000	0.000000
48.363070	12.877622	22.059742	1.331728	-2.183724	2.330145	0.000000	-0.237908	0.000000	0.000002	-0.000001	0.000000	0.000000
48.804030	11.883342	23.770708	0.931634	-1.681603	2.239697	0.000000	-0.172714	0.000000	0.000002	-0.000001	0.000000	0.000000
49.244990	11.221881	25.003284	0.574103	-1.102971	2.177537	0.000000	-0.109487	0.000000	0.000001	-0.000001	0.000000	0.000000
49.685950	10.863020	25.701390	0.242802	-0.474154	2.142956	0.000000	-0.047507	0.000000	0.000001	-0.000001	0.000000	0.000000
50.128160	10.790490	25.832979	-0.051062	0.112838	2.135571	0.000000	0.008695	0.000000	0.000001	-0.000001	0.000000	0.000000
50.425482	10.829068	25.769345	-0.078688	0.101182	2.138156	0.000000	0.008695	0.000000	0.000001	-0.000001	0.000000	0.000000
50.758816	10.891850	25.706247	-0.109660	0.088114	2.141055	0.000000	0.008695	0.000000	0.000000	-0.000001	0.000000	0.000000
51.092149	10.975280	25.651860	-0.140631	0.075047	2.143953	0.000000	0.008695	0.000000	0.000000	-0.000001	0.000000	0.000000
51.426732	11.079563	25.606549	-0.081835	-0.145803	2.146841	0.000000	-0.008722	0.000000	-0.000000	-0.000001	0.000000	0.000000
51.724055	11.136258	25.696776	-0.081540	-0.220677	2.144248	0.000000	-0.013980	0.000000	-0.000000	-0.000001	0.000000	0.000000
52.165015	11.353556	25.605526	-0.413113	0.426824	2.151672	0.000000	0.047683	0.000000	-0.000001	-0.000001	0.000000	0.000000
52.605975	11.870460	24.949647	-0.763559	1.054905	2.186380	0.000000	0.109889	0.000000	-0.000001	-0.000001	0.000000	0.000000
53.046935	12.710586	23.758981	-1.148890	1.634989	2.248769	0.000000	0.173347	0.000000	-0.000001	-0.000001	0.000000	0.000000
53.487895	13.912317	22.087702	-1.586711	2.140682	2.339549	0.000000	0.238779	0.000000	-0.000001	-0.000001	0.000000	0.000000
53.933855	15.551155	19.986861	-2.101257	2.550311	2.461258	0.000000	0.307330	0.000000	-0.000002	-0.000001	0.000000	0.000000
54.482915	17.661081	17.622930	-1.718792	1.780519	2.609821	0.000000	0.233026	0.000000	-0.000002	-0.000001	0.000000	0.000000
55.031975	19.281456	16.030138	-1.214920	1.137549	2.716390	0.000000	0.154589	0.000000	-0.000003	-0.000001	0.000000	0.000000
55.581035	20.297826	15.095033	-0.625232	0.575604	2.779074	0.000000	0.073409	0.000000	-0.000003	-0.000001	0.000000	0.000000
56.130095	20.638399	14.751012	0.008620	0.054659	2.796763	0.000000	-0.009072	0.000000	-0.000003	-0.000000	0.000000	0.000000
56.428668	20.669782	14.701453	-0.059803	0.072785	2.796236	0.000000	-0.001765	0.000000	-0.000003	-0.000000	0.000000	0.000000
56.762001	20.715045	14.660527	-0.075987	0.049991	2.795648	0.000000	-0.001765	0.000000	-0.000003	-0.000000	0.000000	0.000000
57.095334	20.771097	14.634798	-0.092171	0.027198	2.795060	0.000000	-0.001765	0.000000	-0.000004	-0.000000	0.000000	0.000000
57.429918	20.838211	14.624253	-0.108416	0.004319	2.794470	0.000000	-0.001765	0.000000	-0.000004	-0.000000	0.000000	0.000000
57.727240	20.906972	14.627730	-0.177480	0.022208	2.793945	0.000000	0.005536	0.000000	-0.000004	-0.000000	0.000000	0.000000
58.276300	20.745159	14.884270	0.470444	-0.492202	2.774346	0.000000	-0.076824	0.000000	-0.000004	-0.000000	0.000000	0.000000
58.825360	19.885965	15.721516	1.085138	-1.041670	2.709834	0.000000	-0.157820	0.000000	-0.000004	-0.000000	0.000000	0.000000
59.374420	18.390079	17.199101	1.623183	-1.665334	2.601555	0.000000	-0.236017	0.000000	-0.000004	-0.000000	0.000000	0.000000
59.923480	16.363164	19.422273	2.046575	-2.407616	2.451428	0.000000	-0.310028	0.000000	-0.000004	0.000000	0.000000	0.000000
60.369440	14.776668	21.398284	1.523506	-2.004598	2.328457	0.000000	-0.241749	0.000000	-0.000004	-0.000000	0.000000	0.000000
60.810400	13.635491	22.954773	1.074251	-1.511744	2.236303	0.000000	-0.176621	0.000000	-0.000004	-0.000000	0.000000	0.000000
61.251360	12.867463	24.044498	0.674075	-0.950107	2.172397	0.000000	-0.113504	0.000000	-0.000004	-0.000000	0.000000	0.000000
61.692320	12.437496	24.617877	0.304695	-0.345241	2.136012	0.000000	-0.051680	0.000000	-0.000005	-0.000000	0.000000	0.000000
62.134530	12.325997	24.648284	-0.020637	0.214831	2.126739	0.000000	0.004341	0.000000	-0.000005	-0.000000	0.000000	0.000000
62.431853	12.345444	24.524287	-0.044769	0.202212	2.128030	0.000000	0.004341	0.000000	-0.000005	-0.000000	0.000000	0.000000
62.765186	12.384308	24.394195	-0.071824	0.188064	2.129477	0.000000	0.004341	0.000000	-0.000005	-0.000000	0.000000	0.000000
63.098520	12.441209	24.273535	-0.098879	0.173917	2.130924	0.000000	0.004341	0.000000	-0.000005	-0.000000	0.000000	0.000000
63.433103	12.516461	24.161907	-0.126035	0.159716	2.132376	0.000000	0.004341	0.000000	-0.000005	-0.000000	0.000000	0.000000
63.730426	12.598582	24.070685	-0.119269	0.088065	2.133667	0.000000	-0.000892	0.000000	-0.000005	-0.000000	0.000000	0.000000
64.171386	12.864179	23.727919	-0.485330	0.686294	2.146813	0.000000	0.060572	0.000000	-0.000006	-0.000001	0.000000	0.000000
64.612346	13.461132	22.869370	-0.873564	1.253297	2.187188	0.000000	0.122726	0.000000	-0.000006	-0.000001	0.000000	0.000000
65.053306	14.416714	21.534101	-1.301708	1.763276	2.255253	0.000000	0.186278	0.000000	-0.000006	-0.000001	0.000000	0.000000
65.494266	15.774584	19.782866	-1.789324	2.193028	2.351783	0.000000	0.251952	0.000000	-0.000007	-0.000001	0.000000	0.000000
65.940226	17.619943	17.670558	-2.363382	2.523754	2.479448	0.000000	0.320896	0.000000	-0.000007	-0.000001	0.000000	0.000000
66.489286	19.985434	15.307500	-1.919371	1.805476	2.635277	0.000000	0.245885	0.000000	-0.000008	-0.000001	0.000000	0.000000
67.038346	21.785561	13.658374	-1.339785	1.215798	2.748660	0.000000	0.166513	0.000000	-0.000008	-0.000001	0.000000	0.000000
67.587406	22.893173	12.605717	-0.665563	0.712718	2.817586	0.000000	0.084187	0.000000	-0.000009	-0.000000	0.000000	0.000000
68.136466	23.230035	12.074550	0.055670	0.260404	2.840833	0.000000	0.000367	0.000000	-0.000009	-0.000000	0.000000	0.000000
68.435038	23.236876	11.908223	-0.017883	0.265120	2.843159	0.000000	0.007790	0.000000	-0.000009	-0.000000	0.000000	0.000000
68.768372	23.253581	11.741463	-0.032233	0.235160	2.845756	0.000000	0.007790	0.000000	-0.000009	-0.000000	0.000000	0.000000
69.101705	23.279853	11.594676	-0.046582	0.205201	2.848353	0.000000	0.007790	0.000000	-0.000009	-0.000000	0.000000	0.000000
69.436288	23.315843	11.467423	-0.060986	0.175129	2.850960	0.000000	0.007790	0.000000	-0.000009	-0.000000	0.000000	0.000000
69.733611	23.355914	11.371229	-0.134815	0.178120	2.853276	0.000000	0.015246	0.000000	-0.000009	-0.000000	0.000000	0.000000
70.282671	23.102836	11.403318	0.593015	-0.236908	2.838466	0.000000	-0.069113	0.000000	-0.000009	0.000000	0.000000	0.000000
