#ParticleID	Turn	x[m]	xp	y[m]	yp	z[m]	dE[GeV]# s	beta_x	beta_y	alpha_x	alpha_y	D_x	D_y	D_px	D_py	orbit_x	orbit_px	orbit_y	orbit_py
0.300000	11.803808	25.057933	-0.010075	-0.026802	2.618277	0.000000	-0.000050	0.000000	-0.000002	0.000002	0.000000	0.000000
0.601250	11.817568	25.077705	-0.035599	-0.038833	2.618261	0.000000	-0.000050	0.000000	-0.000001	0.000002	0.000000	0.000000
0.898573	11.846226	25.104327	-0.031739	-0.112269	2.618246	0.000000	-0.006470	0.000000	-0.000001	0.000002	0.000000	0.000000
1.339533	12.026229	24.924844	-0.378015	0.517749	2.631686	0.000000	0.067490	0.000000	0.000000	0.000002	0.000000	0.000000
1.780493	12.518051	24.198040	-0.741561	1.124210	2.677878	0.000000	0.142219	0.000000	0.000001	0.000002	0.000000	0.000000
2.221453	13.344164	22.956984	-1.138987	1.679520	2.757348	0.000000	0.218568	0.000000	0.000002	0.000002	0.000000	0.000000
2.662413	14.542309	21.258144	-1.588449	2.158414	2.871000	0.000000	0.297406	0.000000	0.000003	0.000002	0.000000	0.000000
3.108373	16.187943	19.153904	-2.114769	2.540235	3.021992	0.000000	0.380121	0.000000	0.000004	0.000002	0.000000	0.000000
3.657433	18.298237	16.790474	-1.705944	1.789675	3.205428	0.000000	0.287083	0.000000	0.000005	0.000002	0.000000	0.000000
4.206493	19.890363	15.176832	-1.176620	1.166589	3.336307	0.000000	0.188954	0.000000	0.000006	0.000002	0.000000	0.000000
4.755553	20.851862	14.198044	-0.564186	0.626596	3.412305	0.000000	0.087473	0.000000	0.000007	0.000002	0.000000	0.000000
5.304613	21.114819	13.784390	0.088100	0.131235	3.432075	0.000000	-0.015560	0.000000	0.000007	0.000001	0.000000	0.000000
5.603185	21.099379	13.691166	0.018779	0.144983	3.430106	0.000000	-0.006593	0.000000	0.000008	0.000001	0.000000	0.000000
5.936519	21.092127	13.602797	0.002975	0.120124	3.427908	0.000000	-0.006593	0.000000	0.000008	0.000001	0.000000	0.000000
6.269852	21.095412	13.531001	-0.012829	0.095266	3.425710	0.000000	-0.006593	0.000000	0.000009	0.000001	0.000000	0.000000
6.604435	21.109304	13.475600	-0.028692	0.070314	3.423504	0.000000	-0.006593	0.000000	0.000009	0.000001	0.000000	0.000000
6.901758	21.130557	13.440381	-0.097994	0.083256	3.421543	0.000000	0.002346	0.000000	0.000009	0.000001	0.000000	0.000000
7.450818	20.878075	13.609924	0.555116	-0.393868	3.394631	0.000000	-0.100230	0.000000	0.000010	0.000001	0.000000	0.000000
7.999878	19.925786	14.315646	1.169016	-0.899046	3.311804	0.000000	-0.201028	0.000000	0.000011	0.000001	0.000000	0.000000
8.548938	18.340954	15.607812	1.700343	-1.468261	3.174532	0.000000	-0.298260	0.000000	0.000011	0.000000	0.000000	0.000000
9.097998	16.235524	17.578461	2.111566	-2.142057	2.985250	0.000000	-0.390201	0.000000	0.000011	0.000000	0.000000	0.000000
9.543958	14.592956	19.334376	1.584746	-1.778682	2.829541	0.000000	-0.308501	0.000000	0.000011	0.000000	0.000000	0.000000
9.984918	13.398359	20.712903	1.134613	-1.335615	2.710750	0.000000	-0.230798	0.000000	0.000011	0.000001	0.000000	0.000000
10.425878	12.576471	21.672288	0.736318	-0.831779	2.625610	0.000000	-0.155723	0.000000	0.000012	0.000001	0.000000	0.000000
10.866838	12.089743	22.168880	0.371662	-0.290097	2.573153	0.000000	-0.082423	0.000000	0.000012	0.000001	0.000000	0.000000
11.309048	11.915804	22.179559	0.053100	0.210339	2.552761	0.000000	-0.016320	0.000000	0.000013	0.000001	0.000000	0.000000
11.606371	11.891669	22.058644	0.028077	0.196340	2.547908	0.000000	-0.016320	0.000000	0.000013	0.000001	0.000000	0.000000
12.086371	11.884105	21.881005	-0.012319	0.173741	2.540074	0.000000	-0.016320	0.000000	0.000014	0.000001	0.000000	0.000000
12.566371	11.915321	21.725061	-0.052715	0.151142	2.532239	0.000000	-0.016320	0.000000	0.000015	0.000001	0.000000	0.000000
13.046371	11.985318	21.590812	-0.093111	0.128543	2.524405	0.000000	-0.016320	0.000000	0.000015	0.000001	0.000000	0.000000
13.526371	12.094095	21.478258	-0.133508	0.105944	2.516571	0.000000	-0.016320	0.000000	0.000016	0.000001	0.000000	0.000000
14.007621	12.242087	21.387191	-0.174009	0.083286	2.508716	0.000000	-0.016320	0.000000	0.000017	0.000001	0.000000	0.000000
14.304943	12.353000	21.341827	-0.168743	0.016960	2.503863	0.000000	-0.022459	0.000000	0.000017	0.000001	0.000000	0.000000
14.745903	12.660293	21.093303	-0.530772	0.544493	2.509588	0.000000	0.048453	0.000000	0.000018	0.000002	0.000000	0.000000
15.186863	13.296313	20.388725	-0.917051	1.047252	2.546674	0.000000	0.119917	0.000000	0.000019	0.000002	0.000000	0.000000
15.627823	14.290118	19.260153	-1.345228	1.502362	2.615544	0.000000	0.192747	0.000000	0.000020	0.000003	0.000000	0.000000
16.068783	15.687112	17.758934	-1.834864	1.889115	2.716981	0.000000	0.267772	0.000000	0.000021	0.000003	0.000000	0.000000
16.514743	17.574783	15.931875	-2.413088	2.190657	2.853836	0.000000	0.346309	0.000000	0.000023	0.000004	0.000000	0.000000
17.063803	19.999347	13.891877	-1.976615	1.546712	3.020253	0.000000	0.258995	0.000000	0.000025	0.000003	0.000000	0.000000
17.612863	21.864643	12.494723	-1.400524	1.012935	3.137397	0.000000	0.167088	0.000000	0.000026	0.000002	0.000000	0.000000
18.161923	23.038914	11.640900	-0.725507	0.551308	3.203189	0.000000	0.072217	0.000000	0.000028	0.000001	0.000000	0.000000
18.710983	23.439215	11.269589	0.000757	0.128950	3.216463	0.000000	-0.023935	0.000000	0.000028	0.000001	0.000000	0.000000
19.009556	23.479142	11.183117	-0.073256	0.131230	3.211825	0.000000	-0.015533	0.000000	0.000028	0.000001	0.000000	0.000000
19.342889	23.532737	11.105737	-0.087529	0.100909	3.206648	0.000000	-0.015533	0.000000	0.000028	0.000001	0.000000	0.000000
19.676223	23.595848	11.048571	-0.101802	0.070589	3.201470	0.000000	-0.015533	0.000000	0.000029	0.000001	0.000000	0.000000
20.010806	23.669057	11.011381	-0.233399	0.094713	3.196293	0.000000	0.000304	0.000000	0.000029	0.000001	0.000000	0.000000
20.308129	23.811785	10.963161	-0.308845	0.096107	3.196383	0.000000	0.008653	0.000000	0.000029	0.000001	0.000000	0.000000
20.857189	23.740228	11.079512	0.438400	-0.309266	3.174920	0.000000	-0.086715	0.000000	0.000029	-0.000000	0.000000	0.000000
21.406249	22.860324	11.650422	1.154678	-0.736668	3.101441	0.000000	-0.180546	0.000000	0.000029	-0.000001	0.000000	0.000000
21.955309	21.234224	12.716558	1.789396	-1.216540	2.977249	0.000000	-0.271174	0.000000	0.000028	-0.000002	0.000000	0.000000
22.504369	18.976788	14.353857	2.297719	-1.783064	2.804545	0.000000	-0.356992	0.000000	0.000027	-0.000003	0.000000	0.000000
22.950329	17.197617	15.823966	1.705890	-1.499531	2.662632	0.000000	-0.279799	0.000000	0.000026	-0.000002	0.000000	0.000000
23.391289	15.922530	16.996156	1.196695	-1.148622	2.555571	0.000000	-0.206248	0.000000	0.000025	-0.000002	0.000000	0.000000
23.832249	15.070796	17.834557	0.742174	-0.745451	2.480394	0.000000	-0.135046	0.000000	0.000025	-0.000001	0.000000	0.000000
24.273209	14.603504	18.301023	0.321561	-0.308363	2.436246	0.000000	-0.065381	0.000000	0.000024	-0.000000	0.000000	0.000000
24.715418	14.499426	18.374084	-0.048899	0.097637	2.422621	0.000000	-0.002401	0.000000	0.000024	0.000000	0.000000	0.000000
25.012741	14.534615	18.320882	-0.069454	0.081301	2.421907	0.000000	-0.002401	0.000000	0.000024	0.000000	0.000000	0.000000
25.346075	14.588599	18.272786	-0.092498	0.062987	2.421106	0.000000	-0.002401	0.000000	0.000025	0.000000	0.000000	0.000000
25.679408	14.657946	18.236900	-0.115543	0.044672	2.420306	0.000000	-0.002401	0.000000	0.000025	0.000000	0.000000	0.000000
26.013991	14.742703	18.213526	-0.019071	-0.121468	2.419478	0.000000	-0.022030	0.000000	0.000025	0.000000	0.000000	0.000000
26.311314	14.760042	18.290682	-0.003058	-0.182877	2.412928	0.000000	-0.027946	0.000000	0.000025	0.000000	0.000000	0.000000
26.752274	14.944570	18.253630	-0.416997	0.266581	2.415712	0.000000	0.040584	0.000000	0.000025	0.000001	0.000000	0.000000
27.193234	15.501149	17.824048	-0.849988	0.703910	2.448787	0.000000	0.109577	0.000000	0.000025	0.000001	0.000000	0.000000
27.634194	16.455207	17.021480	-1.321812	1.109211	2.512532	0.000000	0.179817	0.000000	0.000026	0.000002	0.000000	0.000000
28.075154	17.850333	15.882443	-1.854026	1.464044	2.607670	0.000000	0.252105	0.000000	0.000027	0.000003	0.000000	0.000000
28.521114	19.774501	14.441600	-2.475919	1.753175	2.736890	0.000000	0.327708	0.000000	0.000029	0.000003	0.000000	0.000000
29.070174	22.220115	12.836318	-1.951895	1.187773	2.894162	0.000000	0.244332	0.000000	0.000030	0.000002	0.000000	0.000000
29.619234	24.010711	11.802092	-1.290000	0.706973	3.004397	0.000000	0.156622	0.000000	0.000031	0.000001	0.000000	0.000000
30.168294	25.019810	11.265259	-0.536985	0.276530	3.065640	0.000000	0.066134	0.000000	0.000032	0.000000	0.000000	0.000000
30.717354	25.176133	11.187579	0.253960	-0.134217	3.076804	0.000000	-0.025527	0.000000	0.000032	-0.000001	0.000000	0.000000
31.015927	25.067418	11.258332	0.175918	-0.131976	3.071582	0.000000	-0.017490	0.000000	0.000032	-0.000000	0.000000	0.000000
31.349260	24.954710	11.356357	0.162209	-0.162099	3.065753	0.000000	-0.017490	0.000000	0.000031	-0.000000	0.000000	0.000000
31.682593	24.851140	11.474465	0.148500	-0.192223	3.059923	0.000000	-0.017490	0.000000	0.000031	-0.000000	0.000000	0.000000
32.017177	24.756373	11.613210	0.134739	-0.222459	3.054071	0.000000	-0.017490	0.000000	0.000031	-0.000000	0.000000	0.000000
32.314499	24.679887	11.753483	0.058044	-0.218627	3.048871	0.000000	-0.009526	0.000000	0.000031	-0.000000	0.000000	0.000000
32.863559	24.193267	12.232730	0.822986	-0.659375	3.018766	0.000000	-0.099975	0.000000	0.000031	-0.000001	0.000000	0.000000
33.412619	22.893754	13.218768	1.529797	-1.147090	2.939414	0.000000	-0.188651	0.000000	0.000029	-0.000002	0.000000	0.000000
33.961679	20.873139	14.781829	2.128551	-1.716509	2.812222	0.000000	-0.273980	0.000000	0.000028	-0.000003	0.000000	0.000000
34.510739	18.274147	17.033248	2.576954	-2.408191	2.639447	0.000000	-0.354450	0.000000	0.000026	-0.000004	0.000000	0.000000
34.956699	16.253267	19.047096	1.970808	-2.088714	2.497716	0.000000	-0.281538	0.000000	0.000024	-0.000004	0.000000	0.000000
35.397659	14.746257	20.713059	1.459722	-1.674945	2.388948	0.000000	-0.212260	0.000000	0.000023	-0.000003	0.000000	0.000000
35.838619	13.658983	21.978984	1.015327	-1.184967	2.310168	0.000000	-0.145399	0.000000	0.000022	-0.000002	0.000000	0.000000
36.279579	12.941772	22.787272	0.617320	-0.641075	2.260477	0.000000	-0.080195	0.000000	0.000021	-0.000002	0.000000	0.000000
36.721789	12.561159	23.101457	0.278208	-0.124708	2.239283	0.000000	-0.021394	0.000000	0.000020	-0.000001	0.000000	0.000000
37.019112	12.403306	23.179501	0.252706	-0.137779	2.232922	0.000000	-0.021394	0.000000	0.000020	-0.000001	0.000000	0.000000
37.352445	12.244366	23.276238	0.224115	-0.152432	2.225791	0.000000	-0.021394	0.000000	0.000019	-0.000001	0.000000	0.000000
37.685779	12.104486	23.382744	0.195524	-0.167086	2.218660	0.000000	-0.021394	0.000000	0.000019	-0.000001	0.000000	0.000000
38.020362	11.983249	23.499473	0.166826	-0.181794	2.211503	0.000000	-0.021394	0.000000	0.000018	-0.000001	0.000000	0.000000
38.317684	11.891629	23.611462	0.170481	-0.252758	2.205142	0.000000	-0.026801	0.000000	0.000018	-0.000001	0.000000	0.000000
38.758644	11.892850	23.572833	-0.173260	0.340028	2.207249	0.000000	0.036364	0.000000	0.000017	-0.000001	0.000000	0.000000
39.199604	12.199555	23.016265	-0.524918	0.917342	2.237274	0.000000	0.099942	0.000000	0.000017	-0.000000	0.000000	0.000000
39.640564	12.825757	21.967082	-0.900557	1.452918	2.295558	0.000000	0.164659	0.000000	0.000017	-0.000000	0.000000	0.000000
40.081524	13.800065	20.473022	-1.317341	1.922387	2.382765	0.000000	0.231252	0.000000	0.000017	0.000000	0.000000	0.000000
40.527484	15.184571	18.579483	-1.798138	2.305677	2.501361	0.000000	0.300883	0.000000	0.000017	0.000001	0.000000	0.000000
41.076544	16.951232	16.451542	-1.400425	1.592806	2.646038	0.000000	0.225343	0.000000	0.000018	0.000000	0.000000	0.000000
41.625604	18.223920	15.039899	-0.903792	0.993388	2.748080	0.000000	0.145805	0.000000	0.000018	-0.000000	0.000000	0.000000
42.174664	18.912737	14.244004	-0.343320	0.464727	2.805675	0.000000	0.063681	0.000000	0.000017	-0.000001	0.000000	0.000000
42.723724	18.969029	14.007168	0.241402	-0.030833	2.817803	0.000000	-0.019572	0.000000	0.000017	-0.000001	0.000000	0.000000
43.022297	18.859341	14.010093	0.175527	-0.015556	2.814158	0.000000	-0.012211	0.000000	0.000016	-0.000001	0.000000	0.000000
43.502297	18.703428	14.041476	0.149291	-0.049825	2.808297	0.000000	-0.012211	0.000000	0.000016	-0.000001	0.000000	0.000000
43.982297	18.572702	14.105757	0.123055	-0.084095	2.802437	0.000000	-0.012211	0.000000	0.000015	-0.000001	0.000000	0.000000
44.462297	18.467162	14.202937	0.096820	-0.118364	2.796576	0.000000	-0.012211	0.000000	0.000014	-0.000001	0.000000	0.000000
44.942297	18.386808	14.333016	0.070584	-0.152633	2.790716	0.000000	-0.012211	0.000000	0.000014	-0.000001	0.000000	0.000000
45.423547	18.331757	14.496281	-0.046546	-0.115168	2.784857	0.000000	0.001587	0.000000	0.000013	-0.000001	0.000000	0.000000
45.720870	18.364268	14.570944	-0.110777	-0.097884	2.785330	0.000000	0.008864	0.000000	0.000013	-0.000001	0.000000	0.000000
46.269930	18.176706	14.960179	0.450359	-0.615213	2.767629	0.000000	-0.073247	0.000000	0.000012	-0.000002	0.000000	0.000000
46.818990	17.386851	15.938089	0.979684	-1.176362	2.705136	0.000000	-0.154059	0.000000	0.000011	-0.000002	0.000000	0.000000
47.368050	16.050493	17.574328	1.439809	-1.821301	2.598959	0.000000	-0.232138	0.000000	0.000010	-0.000002	0.000000	0.000000
47.917110	14.262026	19.985441	1.798233	-2.595967	2.450980	0.000000	-0.306099	0.000000	0.000008	-0.000003	0.000000	0.000000
48.363070	12.870347	22.129039	1.333461	-2.190531	2.329763	0.000000	-0.237809	0.000000	0.000007	-0.000002	0.000000	0.000000
48.804030	11.874537	23.845276	0.933382	-1.686705	2.239358	0.000000	-0.172624	0.000000	0.000006	-0.000002	0.000000	0.000000
49.244990	11.211498	25.081511	0.575947	-1.106135	2.177236	0.000000	-0.109405	0.000000	0.000005	-0.000002	0.000000	0.000000
49.685950	10.850939	25.781497	0.244824	-0.475237	2.142690	0.000000	-0.047433	0.000000	0.000004	-0.000002	0.000000	0.000000
50.128160	10.776507	25.913099	-0.048803	0.113691	2.135337	0.000000	0.008763	0.000000	0.000003	-0.000002	0.000000	0.000000
50.425482	10.813750	25.848949	-0.076458	0.102069	2.137943	0.000000	0.008763	0.000000	0.000003	-0.000002	0.000000	0.000000
50.758816	10.875057	25.785246	-0.107463	0.089039	2.140865	0.000000	0.008763	0.000000	0.000002	-0.000002	0.000000	0.000000
51.092149	10.957034	25.730230	-0.138468	0.076010	2.143787	0.000000	0.008763	0.000000	0.000001	-0.000002	0.000000	0.000000
51.426732	11.059881	25.684263	-0.079865	-0.145432	2.146698	0.000000	-0.008652	0.000000	0.000001	-0.000002	0.000000	0.000000
51.724055	11.115416	25.774259	-0.079661	-0.220460	2.144126	0.000000	-0.013910	0.000000	0.000000	-0.000002	0.000000	0.000000
52.165015	11.330833	25.681913	-0.410712	0.429083	2.151581	0.000000	0.047751	0.000000	-0.000001	-0.000002	0.000000	0.000000
52.605975	11.845351	25.023176	-0.760527	1.059102	2.186320	0.000000	0.109955	0.000000	-0.000002	-0.000002	0.000000	0.000000
53.046935	12.682474	23.828020	-1.145088	1.640934	2.248738	0.000000	0.173412	0.000000	-0.000002	-0.000002	0.000000	0.000000
53.487895	13.880451	22.150824	-1.581965	2.148104	2.339546	0.000000	0.238843	0.000000	-0.000003	-0.000002	0.000000	0.000000
53.933855	15.514551	20.042824	-2.095341	2.558876	2.461284	0.000000	0.307394	0.000000	-0.000004	-0.000002	0.000000	0.000000
54.482915	17.618469	17.670716	-1.713833	1.786933	2.609883	0.000000	0.233089	0.000000	-0.000005	-0.000002	0.000000	0.000000
55.031975	19.234088	16.071847	-1.211268	1.142269	2.716487	0.000000	0.154649	0.000000	-0.000006	-0.000002	0.000000	0.000000
55.581035	20.247288	15.132332	-0.623145	0.578966	2.779204	0.000000	0.073466	0.000000	-0.000007	-0.000002	0.000000	0.000000
56.130095	20.586501	14.785251	0.008994	0.056902	2.796923	0.000000	-0.009020	0.000000	-0.000008	-0.000001	0.000000	0.000000
56.428668	20.617591	14.734287	-0.059331	0.075157	2.796412	0.000000	-0.001712	0.000000	-0.000009	-0.000001	0.000000	0.000000
56.762001	20.662553	14.691766	-0.075555	0.052407	2.795842	0.000000	-0.001712	0.000000	-0.000009	-0.000001	0.000000	0.000000
57.095334	20.718331	14.664411	-0.091780	0.029656	2.795272	0.000000	-0.001712	0.000000	-0.000010	-0.000001	0.000000	0.000000
57.429918	20.785196	14.652207	-0.108065	0.006820	2.794700	0.000000	-0.001712	0.000000	-0.000010	-0.000001	0.000000	0.000000
57.727240	20.853759	14.654185	-0.177028	0.024819	2.794191	0.000000	0.005589	0.000000	-0.000010	-0.000001	0.000000	0.000000
58.276300	20.692431	14.908262	0.469114	-0.490297	2.774620	0.000000	-0.076778	0.000000	-0.000011	-0.000001	0.000000	0.000000
58.825360	19.835638	15.743739	1.082120	-1.040336	2.710131	0.000000	-0.157784	0.000000	-0.000012	-0.000001	0.000000	0.000000
59.374420	18.343900	17.220129	1.618691	-1.664476	2.601868	0.000000	-0.235991	0.000000	-0.000012	-0.000000	0.000000	0.000000
59.923480	16.322585	19.442588	2.040926	-2.407172	2.451753	0.000000	-0.310012	0.000000	-0.000012	0.000000	0.000000	0.000000
60.369440	14.740572	21.417878	1.519070	-2.003429	2.328791	0.000000	-0.241725	0.000000	-0.000012	-0.000000	0.000000	0.000000
60.810400	13.602854	22.973037	1.070814	-1.509908	2.236650	0.000000	-0.176587	0.000000	-0.000012	-0.000001	0.000000	0.000000
61.251360	12.837476	24.060878	0.671480	-0.947688	2.172761	0.000000	-0.113461	0.000000	-0.000012	-0.000001	0.000000	0.000000
61.692320	12.409470	24.631906	0.302824	-0.342349	2.136397	0.000000	-0.051627	0.000000	-0.000013	-0.000001	0.000000	0.000000
62.134530	12.299337	24.659594	-0.021933	0.218032	2.127150	0.000000	0.004401	0.000000	-0.000014	-0.000001	0.000000	0.000000
62.431853	12.319570	24.533698	-0.046118	0.205402	2.128459	0.000000	0.004401	0.000000	-0.000014	-0.000001	0.000000	0.000000
62.765186	12.359354	24.401483	-0.073233	0.191242	2.129927	0.000000	0.004401	0.000000	-0.000014	-0.000001	0.000000	0.000000
63.098520	12.417214	24.278709	-0.100348	0.177082	2.131394	0.000000	0.004401	0.000000	-0.000015	-0.000001	0.000000	0.000000
63.433103	12.493470	24.164967	-0.127564	0.162869	2.132867	0.000000	0.004401	0.000000	-0.000015	-0.000001	0.000000	0.000000
63.730426	12.576516	24.071873	-0.120904	0.091198	2.134176	0.000000	-0.000833	0.000000	-0.000016	-0.000001	0.000000	0.000000
64.171386	12.843346	23.726356	-0.486504	0.689377	2.147352	0.000000	0.060645	0.000000	-0.000017	-0.000002	0.000000	0.000000
64.612346	13.441152	22.865163	-0.874332	1.256189	2.187763	0.000000	0.122813	0.000000	-0.000018	-0.000002	0.000000	0.000000
65.053306	14.397246	21.527476	-1.302105	1.765846	2.255870	0.000000	0.186380	0.000000	-0.000019	-0.000003	0.000000	0.000000
65.494266	15.755309	19.774160	-1.789368	2.195159	2.352449	0.000000	0.252070	0.000000	-0.000020	-0.000003	0.000000	0.000000
65.940226	17.600549	17.660186	-2.363073	2.525344	2.480173	0.000000	0.321033	0.000000	-0.000022	-0.000004	0.000000	0.000000
66.489286	19.966143	15.295389	-1.919871	1.807072	2.636071	0.000000	0.245998	0.000000	-0.000024	-0.000003	0.000000	0.000000
67.038346	21.767250	13.644455	-1.341060	1.217514	2.749509	0.000000	0.166598	0.000000	-0.000025	-0.000002	0.000000	0.000000
67.587406	22.876648	12.589792	-0.667522	0.714677	2.818476	0.000000	0.084244	0.000000	-0.000026	-0.000001	0.000000	0.000000
68.136466	23.215976	12.056278	0.053165	0.262745	2.841747	0.000000	0.000396	0.000000	-0.000027	-0.000001	0.000000	0.000000
68.435038	23.224299	11.888600	-0.020369	0.267344	2.844082	0.000000	0.007822	0.000000	-0.000027	-0.000001	0.000000	0.000000
68.768372	23.242665	11.720385	-0.034728	0.237302	2.846690	0.000000	0.007822	0.000000	-0.000027	-0.000001	0.000000	0.000000
69.101705	23.270603	11.572198	-0.049087	0.207260	2.849298	0.000000	0.007822	0.000000	-0.000027	-0.000001	0.000000	0.000000
69.436288	23.308272	11.443595	-0.063499	0.177105	2.851915	0.000000	0.007822	0.000000	-0.000028	-0.000001	0.000000	0.000000
69.733611	23.349839	11.346248	-0.137330	0.179961	2.854241	0.000000	0.015282	0.000000	-0.000028	-0.000001	0.000000	0.000000
70.282671	23.099611	11.375924	0.590372	-0.234330	2.839442	0.000000	-0.069109	0.000000	-0.000028	0.000000	0.000000	0.000000
