#ParticleID	Turn	x[m]	xp	y[m]	yp	z[m]	dE[GeV]# s	beta_x	beta_y	alpha_x	alpha_y	D_x	D_y	D_px	D_py	orbit_x	orbit_px	orbit_y	orbit_py
0.300000	11.824254	24.976250	-0.012300	-0.027639	2.618121	0.000000	0.000009	0.000000	0.000001	0.000000	0.000000	0.000000
0.601250	11.839341	24.996539	-0.037782	-0.039709	2.618123	0.000000	0.000009	0.000000	0.000001	0.000000	0.000000	0.000000
0.898573	11.869285	25.023694	-0.033824	-0.112988	2.618126	0.000000	-0.006412	0.000000	0.000001	0.000000	0.000000	0.000000
1.339533	12.051373	24.845783	-0.380679	0.514915	2.631592	0.000000	0.067546	0.000000	0.000001	0.000001	0.000000	0.000000
1.780493	12.545844	24.122367	-0.744926	1.119390	2.677808	0.000000	0.142273	0.000000	0.000001	0.000001	0.000000	0.000000
2.221453	13.375288	22.886361	-1.143206	1.672933	2.757302	0.000000	0.218620	0.000000	0.000002	0.000001	0.000000	0.000000
2.662413	14.577600	21.194002	-1.593716	2.150359	2.870978	0.000000	0.297457	0.000000	0.000002	0.000001	0.000000	0.000000
3.108373	16.228492	19.097470	-2.121335	2.531077	3.021993	0.000000	0.380172	0.000000	0.000002	0.000001	0.000000	0.000000
3.657433	18.345455	16.742822	-1.711454	1.782744	3.205458	0.000000	0.287134	0.000000	0.000002	0.000001	0.000000	0.000000
4.206493	19.942868	15.135801	-1.180684	1.161391	3.336364	0.000000	0.189003	0.000000	0.000003	0.000001	0.000000	0.000000
4.755553	20.907898	14.161943	-0.566516	0.622762	3.412390	0.000000	0.087519	0.000000	0.000003	0.000000	0.000000	0.000000
5.304613	21.172381	13.751880	0.087667	0.128491	3.432186	0.000000	-0.015516	0.000000	0.000003	0.000000	0.000000	0.000000
5.603185	21.157279	13.660354	0.018232	0.142123	3.430230	0.000000	-0.006549	0.000000	0.000003	0.000000	0.000000	0.000000
5.936519	21.150378	13.573904	0.002472	0.117228	3.428047	0.000000	-0.006549	0.000000	0.000003	0.000000	0.000000	0.000000
6.269852	21.153984	13.504050	-0.013288	0.092334	3.425864	0.000000	-0.006549	0.000000	0.000004	0.000000	0.000000	0.000000
6.604435	21.168169	13.450624	-0.029108	0.067346	3.423673	0.000000	-0.006549	0.000000	0.000004	0.000000	0.000000	0.000000
6.901758	21.189657	13.417178	-0.098528	0.080197	3.421725	0.000000	0.002391	0.000000	0.000004	0.000000	0.000000	0.000000
7.450818	20.936673	13.589736	0.556560	-0.396330	3.394837	0.000000	-0.100191	0.000000	0.000004	0.000000	0.000000	0.000000
7.999878	19.981752	14.297916	1.172336	-0.901087	3.312030	0.000000	-0.200996	0.000000	0.000004	0.000000	0.000000	0.000000
8.548938	18.392347	15.592160	1.705304	-1.470026	3.174774	0.000000	-0.298235	0.000000	0.000004	-0.000000	0.000000	0.000000
9.097998	16.280724	17.564654	2.117818	-2.143672	2.985503	0.000000	-0.390185	0.000000	0.000004	-0.000000	0.000000	0.000000
9.543958	14.633198	19.322285	1.589651	-1.780902	2.829803	0.000000	-0.308478	0.000000	0.000004	-0.000000	0.000000	0.000000
9.984918	13.434781	20.702998	1.138405	-1.338333	2.711023	0.000000	-0.230768	0.000000	0.000004	0.000000	0.000000	0.000000
10.425878	12.609975	21.664955	0.739170	-0.834872	2.625899	0.000000	-0.155686	0.000000	0.000004	0.000000	0.000000	0.000000
10.866838	12.121096	22.164388	0.373705	-0.293424	2.573460	0.000000	-0.082378	0.000000	0.000004	0.000000	0.000000	0.000000
11.309048	11.945674	22.178057	0.054502	0.206930	2.553090	0.000000	-0.016268	0.000000	0.000004	0.000000	0.000000	0.000000
11.606371	11.920687	22.059164	0.029539	0.192949	2.548253	0.000000	-0.016268	0.000000	0.000004	0.000000	0.000000	0.000000
12.086371	11.911674	21.884766	-0.010763	0.170380	2.540444	0.000000	-0.016268	0.000000	0.000004	0.000000	0.000000	0.000000
12.566371	11.941351	21.732035	-0.051064	0.147810	2.532635	0.000000	-0.016268	0.000000	0.000004	0.000000	0.000000	0.000000
13.046371	12.009717	21.600972	-0.091365	0.125240	2.524826	0.000000	-0.016268	0.000000	0.000005	0.000000	0.000000	0.000000
13.526371	12.116773	21.491575	-0.131667	0.102670	2.517017	0.000000	-0.016268	0.000000	0.000005	0.000000	0.000000	0.000000
14.007621	12.262947	21.403645	-0.172073	0.080042	2.509188	0.000000	-0.016268	0.000000	0.000005	0.000000	0.000000	0.000000
14.304943	12.372692	21.360205	-0.166696	0.013683	2.504351	0.000000	-0.022409	0.000000	0.000005	0.000000	0.000000	0.000000
14.745903	12.678354	21.114332	-0.529107	0.541782	2.510101	0.000000	0.048516	0.000000	0.000005	0.000000	0.000000	0.000000
15.186863	13.313044	20.411850	-0.915691	1.045230	2.547219	0.000000	0.119993	0.000000	0.000005	0.000001	0.000000	0.000000
15.627823	14.305761	19.284721	-1.344111	1.501122	2.616126	0.000000	0.192838	0.000000	0.000006	0.000001	0.000000	0.000000
16.068783	15.701858	17.784229	-1.833939	1.888713	2.717607	0.000000	0.267878	0.000000	0.000006	0.000001	0.000000	0.000000
16.514743	17.588773	15.957143	-2.412313	2.191118	2.854514	0.000000	0.346432	0.000000	0.000007	0.000001	0.000000	0.000000
17.063803	20.012092	13.916946	-1.975138	1.546615	3.020994	0.000000	0.259096	0.000000	0.000007	0.000001	0.000000	0.000000
17.612863	21.875424	12.520208	-1.398448	1.012273	3.138188	0.000000	0.167164	0.000000	0.000007	0.000001	0.000000	0.000000
18.161923	23.047152	11.667440	-0.722980	0.550034	3.204015	0.000000	0.072266	0.000000	0.000008	0.000000	0.000000	0.000000
18.710983	23.444511	11.297904	0.003556	0.126973	3.217309	0.000000	-0.023912	0.000000	0.000008	0.000000	0.000000	0.000000
19.009556	23.482779	11.212540	-0.070474	0.129416	3.212679	0.000000	-0.015507	0.000000	0.000008	0.000000	0.000000	0.000000
19.342889	23.534517	11.136338	-0.084739	0.099189	3.207510	0.000000	-0.015507	0.000000	0.000008	0.000000	0.000000	0.000000
19.676223	23.595764	11.080287	-0.099004	0.068963	3.202341	0.000000	-0.015507	0.000000	0.000008	0.000000	0.000000	0.000000
20.010806	23.667099	11.044154	-0.230583	0.093343	3.197173	0.000000	0.000334	0.000000	0.000008	0.000000	0.000000	0.000000
20.308129	23.808147	10.996722	-0.306016	0.094917	3.197272	0.000000	0.008687	0.000000	0.000008	0.000000	0.000000	0.000000
20.857189	23.733565	11.114901	0.441048	-0.311425	3.175821	0.000000	-0.086710	0.000000	0.000008	-0.000000	0.000000	0.000000
21.406249	22.850938	11.688781	1.156959	-0.739950	3.102336	0.000000	-0.180570	0.000000	0.000008	-0.000000	0.000000	0.000000
21.955309	21.222612	12.759241	1.791147	-1.221180	2.978122	0.000000	-0.271226	0.000000	0.000008	-0.000001	0.000000	0.000000
22.504369	18.963602	14.402526	2.298818	-1.789392	2.805381	0.000000	-0.357072	0.000000	0.000007	-0.000001	0.000000	0.000000
22.950329	17.183390	15.877788	1.707137	-1.504713	2.663436	0.000000	-0.279858	0.000000	0.000007	-0.000001	0.000000	0.000000
23.391289	15.907117	17.053957	1.198148	-1.152427	2.556353	0.000000	-0.206287	0.000000	0.000007	-0.000000	0.000000	0.000000
23.832249	15.053989	17.895041	0.743898	-0.747707	2.481164	0.000000	-0.135064	0.000000	0.000006	-0.000000	0.000000	0.000000
24.273209	14.585029	18.362772	0.323634	-0.308967	2.437012	0.000000	-0.065380	0.000000	0.000006	-0.000000	0.000000	0.000000
24.715418	14.478928	18.435622	-0.046425	0.098554	2.423392	0.000000	-0.002383	0.000000	0.000006	0.000000	0.000000	0.000000
25.012741	14.512653	18.381859	-0.067004	0.082270	2.422683	0.000000	-0.002383	0.000000	0.000006	0.000000	0.000000	0.000000
25.346075	14.565013	18.333098	-0.090076	0.064014	2.421889	0.000000	-0.002383	0.000000	0.000006	0.000000	0.000000	0.000000
25.679408	14.632754	18.296508	-0.113147	0.045757	2.421094	0.000000	-0.002383	0.000000	0.000006	0.000000	0.000000	0.000000
26.013991	14.715919	18.272390	-0.016920	-0.120802	2.420272	0.000000	-0.022018	0.000000	0.000006	-0.000000	0.000000	0.000000
26.311314	14.731989	18.349133	-0.001005	-0.182306	2.413726	0.000000	-0.027937	0.000000	0.000006	-0.000000	0.000000	0.000000
26.752274	14.914397	18.310881	-0.414225	0.268724	2.416518	0.000000	0.040614	0.000000	0.000006	0.000000	0.000000	0.000000
27.193234	15.468168	17.878749	-0.846370	0.707528	2.449612	0.000000	0.109627	0.000000	0.000006	0.000000	0.000000	0.000000
27.634194	16.418603	17.072398	-1.317182	1.114140	2.513383	0.000000	0.179889	0.000000	0.000007	0.000000	0.000000	0.000000
28.075154	17.809123	15.928516	-1.848173	1.470059	2.608559	0.000000	0.252199	0.000000	0.000007	0.000001	0.000000	0.000000
28.521114	19.727419	14.481922	-2.468562	1.760005	2.737827	0.000000	0.327826	0.000000	0.000007	0.000001	0.000000	0.000000
29.070174	22.165586	12.870034	-1.945771	1.193046	2.895157	0.000000	0.244418	0.000000	0.000008	0.000001	0.000000	0.000000
29.619234	23.950335	11.830697	-1.285540	0.711066	3.005431	0.000000	0.156676	0.000000	0.000008	0.000000	0.000000	0.000000
30.168294	24.955600	11.289881	-0.534505	0.279733	3.066695	0.000000	0.066154	0.000000	0.000008	0.000000	0.000000	0.000000
30.717354	25.110374	11.209065	0.254285	-0.131675	3.077861	0.000000	-0.025541	0.000000	0.000008	-0.000000	0.000000	0.000000
31.015927	25.001381	11.278243	0.176367	-0.129305	3.072636	0.000000	-0.017500	0.000000	0.000008	-0.000000	0.000000	0.000000
31.349260	24.888386	11.374463	0.162619	-0.159355	3.066803	0.000000	-0.017500	0.000000	0.000008	-0.000000	0.000000	0.000000
31.682593	24.784555	11.490716	0.148872	-0.189404	3.060970	0.000000	-0.017500	0.000000	0.000008	-0.000000	0.000000	0.000000
32.017177	24.689552	11.627551	0.135073	-0.219567	3.055115	0.000000	-0.017500	0.000000	0.000008	-0.000000	0.000000	0.000000
32.314499	24.612877	11.766084	0.058506	-0.215629	3.049912	0.000000	-0.009531	0.000000	0.000008	-0.000000	0.000000	0.000000
32.863559	24.126974	12.242163	0.821228	-0.656568	3.019794	0.000000	-0.100014	0.000000	0.000007	-0.000000	0.000000	0.000000
33.412619	22.830562	13.225130	1.525943	-1.144272	2.940411	0.000000	-0.188722	0.000000	0.000007	-0.000001	0.000000	0.000000
33.961679	20.815213	14.784999	2.122872	-1.713480	2.813170	0.000000	-0.274083	0.000000	0.000007	-0.000001	0.000000	0.000000
34.510739	18.223281	17.032878	2.569853	-2.404735	2.640329	0.000000	-0.354583	0.000000	0.000006	-0.000001	0.000000	0.000000
34.956699	16.208027	19.043480	1.965250	-2.084920	2.498542	0.000000	-0.281648	0.000000	0.000006	-0.000001	0.000000	0.000000
35.397659	14.705340	20.706012	1.455441	-1.670990	2.389729	0.000000	-0.212350	0.000000	0.000005	-0.000001	0.000000	0.000000
35.838619	13.621353	21.968444	1.012127	-1.181031	2.310912	0.000000	-0.145470	0.000000	0.000005	-0.000001	0.000000	0.000000
36.279579	12.906543	22.773334	0.615054	-0.637337	2.261194	0.000000	-0.080246	0.000000	0.000005	-0.000001	0.000000	0.000000
36.721789	12.527560	23.084365	0.276695	-0.121305	2.239981	0.000000	-0.021430	0.000000	0.000005	-0.000000	0.000000	0.000000
37.019112	12.370621	23.160384	0.251145	-0.134374	2.233610	0.000000	-0.021430	0.000000	0.000004	-0.000000	0.000000	0.000000
37.352445	12.212739	23.254851	0.222500	-0.149026	2.226467	0.000000	-0.021430	0.000000	0.000004	-0.000000	0.000000	0.000000
37.685779	12.073955	23.359086	0.193855	-0.163679	2.219323	0.000000	-0.021430	0.000000	0.000004	-0.000000	0.000000	0.000000
38.020362	11.953854	23.473535	0.165102	-0.178386	2.212153	0.000000	-0.021430	0.000000	0.000004	-0.000000	0.000000	0.000000
38.317684	11.863273	23.583497	0.168643	-0.249287	2.205782	0.000000	-0.026839	0.000000	0.000004	-0.000000	0.000000	0.000000
38.758644	11.865834	23.542144	-0.174472	0.342710	2.207875	0.000000	0.036342	0.000000	0.000004	-0.000000	0.000000	0.000000
39.199604	12.173352	22.983605	-0.525558	0.919113	2.237894	0.000000	0.099937	0.000000	0.000004	-0.000000	0.000000	0.000000
39.640564	12.799878	21.933294	-0.900655	1.453698	2.296179	0.000000	0.164670	0.000000	0.000004	-0.000000	0.000000	0.000000
40.081524	13.774036	20.438998	-1.316901	1.922140	2.383394	0.000000	0.231278	0.000000	0.000004	-0.000000	0.000000	0.000000
40.527484	15.157901	18.546140	-1.797137	2.304407	2.502006	0.000000	0.300926	0.000000	0.000004	0.000000	0.000000	0.000000
41.076544	16.924022	16.419106	-1.400449	1.592415	2.646701	0.000000	0.225364	0.000000	0.000004	-0.000000	0.000000	0.000000
41.625604	18.197301	15.007425	-0.904840	0.993847	2.748749	0.000000	0.145805	0.000000	0.000003	-0.000000	0.000000	0.000000
42.174664	18.887801	14.210547	-0.345319	0.466069	2.806338	0.000000	0.063660	0.000000	0.000003	-0.000000	0.000000	0.000000
42.723724	18.946748	13.971711	0.238595	-0.028511	2.818448	0.000000	-0.019615	0.000000	0.000003	-0.000000	0.000000	0.000000
43.022297	18.838706	13.973319	0.172770	-0.013378	2.814790	0.000000	-0.012251	0.000000	0.000003	-0.000000	0.000000	0.000000
43.502297	18.685442	14.002653	0.146530	-0.047735	2.808910	0.000000	-0.012251	0.000000	0.000003	-0.000000	0.000000	0.000000
43.982297	18.557368	14.064971	0.120290	-0.082093	2.803030	0.000000	-0.012251	0.000000	0.000003	-0.000000	0.000000	0.000000
44.462297	18.454485	14.160271	0.094050	-0.116450	2.797150	0.000000	-0.012251	0.000000	0.000003	-0.000000	0.000000	0.000000
44.942297	18.376792	14.288555	0.067810	-0.150807	2.791270	0.000000	-0.012251	0.000000	0.000002	-0.000000	0.000000	0.000000
45.423547	18.324413	14.450105	-0.049288	-0.113659	2.785392	0.000000	0.001550	0.000000	0.000002	-0.000000	0.000000	0.000000
45.720870	18.358558	14.523889	-0.113519	-0.096554	2.785852	0.000000	0.008829	0.000000	0.000002	-0.000000	0.000000	0.000000
46.269930	18.174088	14.910871	0.447503	-0.612415	2.768128	0.000000	-0.073299	0.000000	0.000002	-0.000000	0.000000	0.000000
46.818990	17.387339	15.884816	0.976917	-1.171897	2.705601	0.000000	-0.154126	0.000000	0.000002	-0.000000	0.000000	0.000000
47.368050	16.053881	17.515097	1.437325	-1.814851	2.599381	0.000000	-0.232220	0.000000	0.000001	-0.000001	0.000000	0.000000
47.917110	14.267904	19.917834	1.796209	-2.587072	2.451353	0.000000	-0.306194	0.000000	0.000001	-0.000001	0.000000	0.000000
48.363070	12.877986	22.054143	1.331521	-2.183148	2.330095	0.000000	-0.237895	0.000000	0.000001	-0.000001	0.000000	0.000000
48.804030	11.883885	23.764659	0.931434	-1.681163	2.239653	0.000000	-0.172702	0.000000	0.000001	-0.000001	0.000000	0.000000
49.244990	11.222601	24.996915	0.573902	-1.102687	2.177498	0.000000	-0.109476	0.000000	0.000000	-0.000001	0.000000	0.000000
49.685950	10.863921	25.694843	0.242590	-0.474039	2.142922	0.000000	-0.047497	0.000000	0.000000	-0.000001	0.000000	0.000000
50.128160	10.791587	25.826408	-0.051291	0.112794	2.135542	0.000000	0.008704	0.000000	-0.000000	-0.000001	0.000000	0.000000
50.425482	10.830301	25.762802	-0.078915	0.101135	2.138130	0.000000	0.008704	0.000000	-0.000000	-0.000001	0.000000	0.000000
50.758816	10.893234	25.699735	-0.109885	0.088064	2.141031	0.000000	0.008704	0.000000	-0.000000	-0.000001	0.000000	0.000000
51.092149	10.976814	25.645383	-0.140854	0.074993	2.143933	0.000000	0.008704	0.000000	-0.000001	-0.000001	0.000000	0.000000
51.426732	11.081245	25.600108	-0.082042	-0.145807	2.146824	0.000000	-0.008712	0.000000	-0.000001	-0.000001	0.000000	0.000000
51.724055	11.138062	25.690338	-0.081739	-0.220669	2.144234	0.000000	-0.013970	0.000000	-0.000001	-0.000001	0.000000	0.000000
52.165015	11.355555	25.599157	-0.413358	0.426662	2.151662	0.000000	0.047693	0.000000	-0.000001	-0.000001	0.000000	0.000000
52.605975	11.872699	24.943493	-0.763862	1.054580	2.186375	0.000000	0.109899	0.000000	-0.000001	-0.000001	0.000000	0.000000
53.046935	12.713123	23.753179	-1.149264	1.634516	2.248768	0.000000	0.173357	0.000000	-0.000002	-0.000001	0.000000	0.000000
53.487895	13.915221	22.082374	-1.587173	2.140083	2.339552	0.000000	0.238789	0.000000	-0.000002	-0.000001	0.000000	0.000000
53.933855	15.554519	19.982115	-2.101830	2.549613	2.461265	0.000000	0.307340	0.000000	-0.000002	-0.000001	0.000000	0.000000
54.482915	17.665030	17.618848	-1.719280	1.780000	2.609833	0.000000	0.233035	0.000000	-0.000003	-0.000001	0.000000	0.000000
55.031975	19.285879	16.026544	-1.215288	1.137173	2.716407	0.000000	0.154597	0.000000	-0.000003	-0.000001	0.000000	0.000000
55.581035	20.302576	15.091787	-0.625455	0.575344	2.779096	0.000000	0.073417	0.000000	-0.000003	-0.000000	0.000000	0.000000
56.130095	20.643306	14.747997	0.008557	0.054495	2.796789	0.000000	-0.009065	0.000000	-0.000003	-0.000000	0.000000	0.000000
56.428668	20.674733	14.698542	-0.059875	0.072610	2.796264	0.000000	-0.001757	0.000000	-0.000004	-0.000000	0.000000	0.000000
56.762001	20.720043	14.657734	-0.076055	0.049812	2.795679	0.000000	-0.001757	0.000000	-0.000004	-0.000000	0.000000	0.000000
57.095334	20.776140	14.632125	-0.092236	0.027015	2.795093	0.000000	-0.001757	0.000000	-0.000004	-0.000000	0.000000	0.000000
57.429918	20.843296	14.621704	-0.108477	0.004132	2.794505	0.000000	-0.001757	0.000000	-0.000004	-0.000000	0.000000	0.000000
57.727240	20.912092	14.625293	-0.177551	0.022012	2.793983	0.000000	0.005543	0.000000	-0.000004	-0.000000	0.000000	0.000000
58.276300	20.750263	14.882011	0.470545	-0.492332	2.774387	0.000000	-0.076817	0.000000	-0.000004	-0.000000	0.000000	0.000000
58.825360	19.890866	15.719368	1.085404	-1.041743	2.709879	0.000000	-0.157815	0.000000	-0.000004	-0.000000	0.000000	0.000000
59.374420	18.394606	17.197004	1.623595	-1.665355	2.601601	0.000000	-0.236014	0.000000	-0.000004	0.000000	0.000000	0.000000
59.923480	16.367170	19.420171	2.047104	-2.407586	2.451476	0.000000	-0.310027	0.000000	-0.000004	0.000000	0.000000	0.000000
60.369440	14.780256	21.396186	1.523919	-2.004637	2.328506	0.000000	-0.241746	0.000000	-0.000004	0.000000	0.000000	0.000000
60.810400	13.638759	22.952739	1.074566	-1.511849	2.236353	0.000000	-0.176616	0.000000	-0.000004	-0.000000	0.000000	0.000000
61.251360	12.870491	24.042583	0.674306	-0.950274	2.172450	0.000000	-0.113498	0.000000	-0.000004	-0.000000	0.000000	0.000000
61.692320	12.440353	24.616133	0.304854	-0.345461	2.136067	0.000000	-0.051672	0.000000	-0.000004	-0.000000	0.000000	0.000000
62.134530	12.328742	24.646756	-0.020537	0.214571	2.126798	0.000000	0.004349	0.000000	-0.000004	-0.000000	0.000000	0.000000
62.431853	12.348128	24.522914	-0.044663	0.201952	2.128091	0.000000	0.004349	0.000000	-0.000004	-0.000000	0.000000	0.000000
62.765186	12.386919	24.392994	-0.071711	0.187805	2.129541	0.000000	0.004349	0.000000	-0.000005	-0.000000	0.000000	0.000000
63.098520	12.443743	24.272507	-0.098760	0.173658	2.130991	0.000000	0.004349	0.000000	-0.000005	-0.000000	0.000000	0.000000
63.433103	12.518914	24.161052	-0.125910	0.159458	2.132446	0.000000	0.004349	0.000000	-0.000005	-0.000000	0.000000	0.000000
63.730426	12.600959	24.069983	-0.119134	0.087810	2.133739	0.000000	-0.000884	0.000000	-0.000005	-0.000000	0.000000	0.000000
64.171386	12.866458	23.727448	-0.485245	0.686027	2.146889	0.000000	0.060582	0.000000	-0.000005	-0.000000	0.000000	0.000000
64.612346	13.463357	22.869136	-0.873526	1.253030	2.187270	0.000000	0.122739	0.000000	-0.000005	-0.000001	0.000000	0.000000
65.053306	14.418926	21.534097	-1.301716	1.763022	2.255340	0.000000	0.186293	0.000000	-0.000006	-0.000001	0.000000	0.000000
65.494266	15.776823	19.783077	-1.789377	2.192797	2.351876	0.000000	0.251968	0.000000	-0.000006	-0.000001	0.000000	0.000000
65.940226	17.622250	17.670959	-2.363483	2.523558	2.479550	0.000000	0.320916	0.000000	-0.000006	-0.000001	0.000000	0.000000
66.489286	19.987802	15.308106	-1.919382	1.805296	2.635388	0.000000	0.245901	0.000000	-0.000007	-0.000001	0.000000	0.000000
67.038346	21.787893	13.659175	-1.339706	1.215622	2.748779	0.000000	0.166525	0.000000	-0.000007	-0.000001	0.000000	0.000000
67.587406	22.895372	12.606715	-0.665400	0.712533	2.817711	0.000000	0.084195	0.000000	-0.000007	-0.000000	0.000000	0.000000
68.136466	23.232014	12.075762	0.055906	0.260197	2.840961	0.000000	0.000371	0.000000	-0.000008	-0.000000	0.000000	0.000000
68.435038	23.238716	11.909555	-0.017650	0.264921	2.843288	0.000000	0.007795	0.000000	-0.000008	-0.000000	0.000000	0.000000
68.768372	23.255266	11.742926	-0.031999	0.234968	2.845887	0.000000	0.007795	0.000000	-0.000008	-0.000000	0.000000	0.000000
69.101705	23.281381	11.596265	-0.046347	0.205015	2.848485	0.000000	0.007795	0.000000	-0.000008	-0.000000	0.000000	0.000000
69.436288	23.317214	11.469135	-0.060749	0.174949	2.851093	0.000000	0.007795	0.000000	-0.000008	-0.000000	0.000000	0.000000
69.733611	23.357143	11.373046	-0.134579	0.177950	2.853411	0.000000	0.015251	0.000000	-0.000008	-0.000000	0.000000	0.000000
70.282671	23.103788	11.405351	0.593284	-0.237133	2.838602	0.000000	-0.069113	0.000000	-0.000008	0.000000	0.000000	0.000000
