#ParticleID	Turn	x[m]	xp	y[m]	yp	z[m]	dE[GeV]# s	beta_x	beta_y	alpha_x	alpha_y	D_x	D_y	D_px	D_py	orbit_x	orbit_px	orbit_y	orbit_py
0.300000	11.802869	25.061123	-0.010013	-0.026751	2.618321	0.000000	-0.000067	0.000000	-0.000002	0.000002	0.000000	0.000000
0.601250	11.816592	25.080864	-0.035539	-0.038780	2.618301	0.000000	-0.000067	0.000000	-0.000001	0.000002	0.000000	0.000000
0.898573	11.845216	25.107454	-0.031685	-0.112223	2.618280	0.000000	-0.006488	0.000000	-0.000001	0.000002	0.000000	0.000000
1.339533	12.025160	24.927894	-0.377936	0.517877	2.631713	0.000000	0.067473	0.000000	0.000000	0.000002	0.000000	0.000000
1.780493	12.516901	24.200943	-0.741453	1.124414	2.677897	0.000000	0.142203	0.000000	0.000001	0.000002	0.000000	0.000000
2.221453	13.342904	22.959677	-1.138846	1.679791	2.757360	0.000000	0.218552	0.000000	0.000002	0.000002	0.000000	0.000000
2.662413	14.540909	21.260573	-1.588270	2.158739	2.871006	0.000000	0.297391	0.000000	0.000003	0.000002	0.000000	0.000000
3.108373	16.186362	19.156024	-2.114541	2.540600	3.021991	0.000000	0.380106	0.000000	0.000004	0.000002	0.000000	0.000000
3.657433	18.296429	16.792244	-1.705761	1.789953	3.205419	0.000000	0.287068	0.000000	0.000005	0.000002	0.000000	0.000000
4.206493	19.888384	15.178334	-1.176494	1.166801	3.336289	0.000000	0.188939	0.000000	0.000006	0.000002	0.000000	0.000000
4.755553	20.849780	14.199342	-0.564125	0.626758	3.412279	0.000000	0.087459	0.000000	0.000007	0.000002	0.000000	0.000000
5.304613	21.112709	13.785534	0.088090	0.131357	3.432043	0.000000	-0.015573	0.000000	0.000008	0.000001	0.000000	0.000000
5.603185	21.097272	13.692235	0.018773	0.145108	3.430070	0.000000	-0.006606	0.000000	0.000008	0.000001	0.000000	0.000000
5.936519	21.090025	13.603782	0.002967	0.120251	3.427867	0.000000	-0.006606	0.000000	0.000008	0.000001	0.000000	0.000000
6.269852	21.093315	13.531901	-0.012838	0.095394	3.425664	0.000000	-0.006606	0.000000	0.000009	0.000001	0.000000	0.000000
6.604435	21.107214	13.476414	-0.028703	0.070443	3.423454	0.000000	-0.006606	0.000000	0.000009	0.000001	0.000000	0.000000
6.901758	21.128474	13.441118	-0.098001	0.083388	3.421489	0.000000	0.002333	0.000000	0.000010	0.000001	0.000000	0.000000
7.450818	20.876037	13.610528	0.555041	-0.393754	3.394570	0.000000	-0.100241	0.000000	0.000011	0.000001	0.000000	0.000000
7.999878	19.923866	14.316130	1.168877	-0.898942	3.311737	0.000000	-0.201037	0.000000	0.000011	0.000001	0.000000	0.000000
8.548938	18.339218	15.608185	1.700150	-1.468160	3.174461	0.000000	-0.298267	0.000000	0.000011	0.000000	0.000000	0.000000
9.097998	16.234023	17.578721	2.111333	-2.141951	2.985176	0.000000	-0.390206	0.000000	0.000011	0.000000	0.000000	0.000000
9.543958	14.591642	19.334533	1.584560	-1.778559	2.829464	0.000000	-0.308508	0.000000	0.000012	0.000000	0.000000	0.000000
9.984918	13.397191	20.712945	1.134466	-1.335480	2.710669	0.000000	-0.230807	0.000000	0.000012	0.000001	0.000000	0.000000
10.425878	12.575419	21.672208	0.736201	-0.831638	2.625525	0.000000	-0.155734	0.000000	0.000012	0.000001	0.000000	0.000000
10.866838	12.088782	22.168676	0.371572	-0.289957	2.573063	0.000000	-0.082436	0.000000	0.000013	0.000001	0.000000	0.000000
11.309048	11.914912	22.179233	0.053029	0.210473	2.552664	0.000000	-0.016335	0.000000	0.000013	0.000002	0.000000	0.000000
11.606371	11.890819	22.058238	0.028005	0.196474	2.547807	0.000000	-0.016335	0.000000	0.000014	0.000002	0.000000	0.000000
12.086371	11.883325	21.880471	-0.012394	0.173873	2.539965	0.000000	-0.016335	0.000000	0.000014	0.000002	0.000000	0.000000
12.566371	11.914615	21.724401	-0.052793	0.151273	2.532124	0.000000	-0.016335	0.000000	0.000015	0.000002	0.000000	0.000000
13.046371	11.984687	21.590027	-0.093192	0.128672	2.524282	0.000000	-0.016335	0.000000	0.000016	0.000002	0.000000	0.000000
13.526371	12.093542	21.477350	-0.133590	0.106072	2.516440	0.000000	-0.016335	0.000000	0.000017	0.000002	0.000000	0.000000
14.007621	12.241616	21.386161	-0.174095	0.083412	2.508578	0.000000	-0.016335	0.000000	0.000017	0.000002	0.000000	0.000000
14.304943	12.352581	21.340723	-0.168832	0.017089	2.503721	0.000000	-0.022474	0.000000	0.000018	0.000002	0.000000	0.000000
14.745903	12.659948	21.092099	-0.530854	0.544589	2.509439	0.000000	0.048434	0.000000	0.000019	0.000002	0.000000	0.000000
15.186863	13.296039	20.387454	-0.917130	1.047311	2.546515	0.000000	0.119894	0.000000	0.000020	0.000002	0.000000	0.000000
15.627823	14.289914	19.258847	-1.345307	1.502381	2.615374	0.000000	0.192720	0.000000	0.000021	0.000003	0.000000	0.000000
16.068783	15.686980	17.757629	-1.834948	1.889094	2.716798	0.000000	0.267740	0.000000	0.000022	0.000004	0.000000	0.000000
16.514743	17.574730	15.930606	-2.413181	2.190596	2.853638	0.000000	0.346272	0.000000	0.000024	0.000004	0.000000	0.000000
17.063803	19.999404	13.890656	-1.976721	1.546683	3.020037	0.000000	0.258966	0.000000	0.000026	0.000003	0.000000	0.000000
17.612863	21.864819	12.493517	-1.400635	1.012937	3.137166	0.000000	0.167066	0.000000	0.000028	0.000002	0.000000	0.000000
18.161923	23.039212	11.639674	-0.725615	0.551341	3.202948	0.000000	0.072202	0.000000	0.000029	0.000002	0.000000	0.000000
18.710983	23.439628	11.268310	0.000658	0.129015	3.216216	0.000000	-0.023942	0.000000	0.000029	0.000001	0.000000	0.000000
19.009556	23.479614	11.181802	-0.073355	0.131288	3.211576	0.000000	-0.015540	0.000000	0.000029	0.000001	0.000000	0.000000
19.342889	23.533275	11.104385	-0.087628	0.100964	3.206396	0.000000	-0.015540	0.000000	0.000030	0.000001	0.000000	0.000000
19.676223	23.596451	11.047184	-0.101901	0.070640	3.201216	0.000000	-0.015540	0.000000	0.000030	0.000001	0.000000	0.000000
20.010806	23.669727	11.009962	-0.233501	0.094752	3.196036	0.000000	0.000295	0.000000	0.000030	0.000001	0.000000	0.000000
20.308129	23.812515	10.961720	-0.308949	0.096138	3.196123	0.000000	0.008644	0.000000	0.000030	0.000001	0.000000	0.000000
20.857189	23.741059	11.078013	0.438322	-0.309194	3.174658	0.000000	-0.086717	0.000000	0.000031	-0.000000	0.000000	0.000000
21.406249	22.861222	11.648820	1.154633	-0.736549	3.101180	0.000000	-0.180539	0.000000	0.000030	-0.000001	0.000000	0.000000
21.955309	21.235152	12.714796	1.789385	-1.216367	2.976994	0.000000	-0.271158	0.000000	0.000029	-0.000002	0.000000	0.000000
22.504369	18.977708	14.351869	2.297744	-1.782824	2.804301	0.000000	-0.356968	0.000000	0.000028	-0.000003	0.000000	0.000000
22.950329	17.198524	15.821784	1.705896	-1.499339	2.662397	0.000000	-0.279782	0.000000	0.000027	-0.000002	0.000000	0.000000
23.391289	15.923439	16.993829	1.196683	-1.148487	2.555343	0.000000	-0.206236	0.000000	0.000026	-0.000002	0.000000	0.000000
23.832249	15.071725	17.832138	0.742142	-0.745379	2.480170	0.000000	-0.135040	0.000000	0.000026	-0.000001	0.000000	0.000000
24.273209	14.604470	18.298569	0.321509	-0.308357	2.436023	0.000000	-0.065381	0.000000	0.000025	-0.000000	0.000000	0.000000
24.715418	14.500448	18.371655	-0.048972	0.097583	2.422397	0.000000	-0.002406	0.000000	0.000025	0.000000	0.000000	0.000000
25.012741	14.535680	18.318485	-0.069526	0.081245	2.421681	0.000000	-0.002406	0.000000	0.000025	0.000000	0.000000	0.000000
25.346075	14.589711	18.270428	-0.092569	0.062928	2.420879	0.000000	-0.002406	0.000000	0.000026	0.000000	0.000000	0.000000
25.679408	14.659105	18.234581	-0.115612	0.044612	2.420077	0.000000	-0.002406	0.000000	0.000026	0.000000	0.000000	0.000000
26.013991	14.743908	18.211249	-0.019129	-0.121512	2.419247	0.000000	-0.022033	0.000000	0.000026	0.000000	0.000000	0.000000
26.311314	14.761281	18.288432	-0.003112	-0.182917	2.412696	0.000000	-0.027948	0.000000	0.000026	0.000000	0.000000	0.000000
26.752274	14.945869	18.251443	-0.417082	0.266480	2.415477	0.000000	0.040576	0.000000	0.000026	0.000001	0.000000	0.000000
27.193234	15.502537	17.821974	-0.850107	0.703753	2.448548	0.000000	0.109562	0.000000	0.000026	0.000001	0.000000	0.000000
27.634194	16.456718	17.019567	-1.321972	1.109006	2.512284	0.000000	0.179796	0.000000	0.000027	0.000002	0.000000	0.000000
28.075154	17.852005	15.880728	-1.854233	1.463799	2.607412	0.000000	0.252077	0.000000	0.000028	0.000003	0.000000	0.000000
28.521114	19.776382	14.440117	-2.476183	1.752903	2.736617	0.000000	0.327673	0.000000	0.000030	0.000004	0.000000	0.000000
29.070174	22.222260	12.835100	-1.952108	1.187560	2.893873	0.000000	0.244306	0.000000	0.000031	0.000003	0.000000	0.000000
29.619234	24.013053	11.801084	-1.290145	0.706804	3.004097	0.000000	0.156606	0.000000	0.000033	0.000002	0.000000	0.000000
30.168294	25.022269	11.264417	-0.537052	0.276393	3.065333	0.000000	0.066128	0.000000	0.000033	0.000000	0.000000	0.000000
30.717354	25.178622	11.186875	0.253975	-0.134332	3.076497	0.000000	-0.025523	0.000000	0.000033	-0.000001	0.000000	0.000000
31.015927	25.069901	11.257698	0.175928	-0.132095	3.071276	0.000000	-0.017487	0.000000	0.000033	-0.000001	0.000000	0.000000
31.349260	24.957185	11.355804	0.162220	-0.162221	3.065447	0.000000	-0.017487	0.000000	0.000033	-0.000001	0.000000	0.000000
31.682593	24.853608	11.473993	0.148512	-0.192347	3.059619	0.000000	-0.017487	0.000000	0.000033	-0.000001	0.000000	0.000000
32.017177	24.758832	11.612823	0.134753	-0.222586	3.053768	0.000000	-0.017487	0.000000	0.000032	-0.000001	0.000000	0.000000
32.314499	24.682337	11.753173	0.058053	-0.218757	3.048569	0.000000	-0.009524	0.000000	0.000032	-0.000000	0.000000	0.000000
32.863559	24.195663	12.232562	0.823076	-0.659504	3.018468	0.000000	-0.099963	0.000000	0.000032	-0.000001	0.000000	0.000000
33.412619	22.896009	13.218744	1.529961	-1.147226	2.939125	0.000000	-0.188629	0.000000	0.000031	-0.000002	0.000000	0.000000
33.961679	20.875179	14.781965	2.128776	-1.716663	2.811947	0.000000	-0.273950	0.000000	0.000029	-0.000003	0.000000	0.000000
34.510739	18.275912	17.033568	2.577226	-2.408374	2.639191	0.000000	-0.354411	0.000000	0.000027	-0.000004	0.000000	0.000000
34.956699	16.254815	19.047583	1.971023	-2.088904	2.497476	0.000000	-0.281505	0.000000	0.000025	-0.000004	0.000000	0.000000
35.397659	14.747635	20.713714	1.459892	-1.675133	2.388722	0.000000	-0.212233	0.000000	0.000024	-0.000003	0.000000	0.000000
35.838619	13.660229	21.979800	1.015459	-1.185145	2.309952	0.000000	-0.145378	0.000000	0.000023	-0.000002	0.000000	0.000000
36.279579	12.942915	22.788237	0.617419	-0.641234	2.260269	0.000000	-0.080179	0.000000	0.000022	-0.000002	0.000000	0.000000
36.721789	12.562227	23.102553	0.278283	-0.124844	2.239081	0.000000	-0.021383	0.000000	0.000021	-0.000001	0.000000	0.000000
37.019112	12.404330	23.180677	0.252782	-0.137915	2.232723	0.000000	-0.021383	0.000000	0.000020	-0.000001	0.000000	0.000000
37.352445	12.245338	23.277505	0.224192	-0.152568	2.225596	0.000000	-0.021383	0.000000	0.000020	-0.000001	0.000000	0.000000
37.685779	12.105406	23.384101	0.195603	-0.167221	2.218469	0.000000	-0.021383	0.000000	0.000020	-0.000001	0.000000	0.000000
38.020362	11.984117	23.500921	0.166906	-0.181929	2.211315	0.000000	-0.021383	0.000000	0.000019	-0.000001	0.000000	0.000000
38.317684	11.892448	23.612990	0.170564	-0.252896	2.204957	0.000000	-0.026790	0.000000	0.000019	-0.000001	0.000000	0.000000
38.758644	11.893604	23.574465	-0.173195	0.339932	2.207068	0.000000	0.036370	0.000000	0.000018	-0.000001	0.000000	0.000000
39.199604	12.200259	23.017961	-0.524868	0.917293	2.237094	0.000000	0.099944	0.000000	0.000018	-0.000000	0.000000	0.000000
39.640564	12.826422	21.968800	-0.900520	1.452918	2.295378	0.000000	0.164657	0.000000	0.000018	-0.000000	0.000000	0.000000
40.081524	13.800702	20.474719	-1.317314	1.922436	2.382583	0.000000	0.231244	0.000000	0.000018	0.000000	0.000000	0.000000
40.527484	15.185188	18.581115	-1.798121	2.305772	2.501175	0.000000	0.300871	0.000000	0.000018	0.000001	0.000000	0.000000
41.076544	16.951815	16.453095	-1.400380	1.592856	2.645847	0.000000	0.225337	0.000000	0.000018	0.000000	0.000000	0.000000
41.625604	18.224440	15.041420	-0.903723	0.993395	2.747887	0.000000	0.145805	0.000000	0.000018	-0.000000	0.000000	0.000000
42.174664	18.913170	14.245541	-0.343232	0.464691	2.805484	0.000000	0.063688	0.000000	0.000018	-0.000001	0.000000	0.000000
42.723724	18.969357	14.008769	0.241504	-0.030914	2.817617	0.000000	-0.019560	0.000000	0.000017	-0.000001	0.000000	0.000000
43.022297	18.859609	14.011739	0.175628	-0.015631	2.813976	0.000000	-0.012199	0.000000	0.000017	-0.000001	0.000000	0.000000
43.502297	18.703600	14.043192	0.149392	-0.049896	2.808121	0.000000	-0.012199	0.000000	0.000016	-0.000001	0.000000	0.000000
43.982297	18.572778	14.107539	0.123155	-0.084161	2.802266	0.000000	-0.012199	0.000000	0.000016	-0.000001	0.000000	0.000000
44.462297	18.467142	14.204782	0.096919	-0.118427	2.796412	0.000000	-0.012199	0.000000	0.000015	-0.000001	0.000000	0.000000
44.942297	18.386693	14.334918	0.070683	-0.152692	2.790557	0.000000	-0.012199	0.000000	0.000014	-0.000001	0.000000	0.000000
45.423547	18.331547	14.498238	-0.046447	-0.115213	2.784704	0.000000	0.001598	0.000000	0.000014	-0.000001	0.000000	0.000000
45.720870	18.363999	14.572927	-0.110677	-0.097921	2.785180	0.000000	0.008875	0.000000	0.000013	-0.000001	0.000000	0.000000
46.269930	18.176334	14.962237	0.450447	-0.615311	2.767487	0.000000	-0.073231	0.000000	0.000012	-0.000002	0.000000	0.000000
46.818990	17.386391	15.940291	0.979754	-1.176529	2.705003	0.000000	-0.154039	0.000000	0.000011	-0.000002	0.000000	0.000000
47.368050	16.049968	17.576756	1.439856	-1.821547	2.598838	0.000000	-0.232114	0.000000	0.000010	-0.000002	0.000000	0.000000
47.917110	14.261464	19.988191	1.798253	-2.596311	2.450873	0.000000	-0.306072	0.000000	0.000009	-0.000003	0.000000	0.000000
48.363070	12.869763	22.132070	1.333489	-2.190812	2.329668	0.000000	-0.237784	0.000000	0.000007	-0.000003	0.000000	0.000000
48.804030	11.873924	23.848522	0.933419	-1.686910	2.239274	0.000000	-0.172601	0.000000	0.000006	-0.000002	0.000000	0.000000
49.244990	11.210849	25.084902	0.575994	-1.106255	2.177161	0.000000	-0.109385	0.000000	0.000005	-0.000002	0.000000	0.000000
49.685950	10.850242	25.784954	0.244885	-0.475267	2.142624	0.000000	-0.047414	0.000000	0.000004	-0.000002	0.000000	0.000000
50.128160	10.775750	25.916542	-0.048729	0.113745	2.135280	0.000000	0.008781	0.000000	0.000003	-0.000002	0.000000	0.000000
50.425482	10.812949	25.852359	-0.076386	0.102124	2.137891	0.000000	0.008781	0.000000	0.000003	-0.000002	0.000000	0.000000
50.758816	10.874209	25.788619	-0.107393	0.089096	2.140819	0.000000	0.008781	0.000000	0.000002	-0.000002	0.000000	0.000000
51.092149	10.956140	25.733565	-0.138400	0.076068	2.143747	0.000000	0.008781	0.000000	0.000002	-0.000002	0.000000	0.000000
51.426732	11.058942	25.687559	-0.079806	-0.145400	2.146663	0.000000	-0.008634	0.000000	0.000001	-0.000002	0.000000	0.000000
51.724055	11.114442	25.777535	-0.079607	-0.220434	2.144097	0.000000	-0.013892	0.000000	0.000000	-0.000002	0.000000	0.000000
52.165015	11.329802	25.685128	-0.410634	0.429195	2.151560	0.000000	0.047768	0.000000	-0.000001	-0.000002	0.000000	0.000000
52.605975	11.844239	25.026255	-0.760422	1.059296	2.186306	0.000000	0.109972	0.000000	-0.000002	-0.000002	0.000000	0.000000
53.046935	12.681257	23.830896	-1.144952	1.641199	2.248731	0.000000	0.173428	0.000000	-0.000002	-0.000002	0.000000	0.000000
53.487895	13.879097	22.153438	-1.581791	2.148430	2.339547	0.000000	0.238860	0.000000	-0.000003	-0.000002	0.000000	0.000000
53.933855	15.513021	20.045126	-2.095121	2.559247	2.461292	0.000000	0.307411	0.000000	-0.000004	-0.000002	0.000000	0.000000
54.482915	17.616720	17.672663	-1.713655	1.787213	2.609900	0.000000	0.233105	0.000000	-0.000006	-0.000002	0.000000	0.000000
55.031975	19.232173	16.073526	-1.211146	1.142479	2.716512	0.000000	0.154664	0.000000	-0.000007	-0.000002	0.000000	0.000000
55.581035	20.245273	15.133812	-0.623087	0.579120	2.779238	0.000000	0.073480	0.000000	-0.000008	-0.000002	0.000000	0.000000
56.130095	20.584460	14.786587	0.008984	0.057011	2.796965	0.000000	-0.009007	0.000000	-0.000009	-0.000001	0.000000	0.000000
56.428668	20.615554	14.735555	-0.059338	0.075272	2.796458	0.000000	-0.001699	0.000000	-0.000009	-0.000001	0.000000	0.000000
56.762001	20.660521	14.692956	-0.075563	0.052523	2.795893	0.000000	-0.001699	0.000000	-0.000009	-0.000001	0.000000	0.000000
57.095334	20.716305	14.665524	-0.091789	0.029774	2.795327	0.000000	-0.001699	0.000000	-0.000010	-0.000001	0.000000	0.000000
57.429918	20.783177	14.653241	-0.108076	0.006939	2.794759	0.000000	-0.001699	0.000000	-0.000010	-0.000001	0.000000	0.000000
57.727240	20.851747	14.655147	-0.177036	0.024942	2.794254	0.000000	0.005603	0.000000	-0.000011	-0.000001	0.000000	0.000000
58.276300	20.690464	14.909102	0.469040	-0.490199	2.774690	0.000000	-0.076767	0.000000	-0.000012	-0.000001	0.000000	0.000000
58.825360	19.833788	15.744482	1.081984	-1.040255	2.710206	0.000000	-0.157775	0.000000	-0.000012	-0.000001	0.000000	0.000000
59.374420	18.342229	17.220789	1.618503	-1.664406	2.601949	0.000000	-0.235985	0.000000	-0.000012	-0.000000	0.000000	0.000000
59.923480	16.321143	19.443177	2.040700	-2.407110	2.451836	0.000000	-0.310009	0.000000	-0.000012	0.000000	0.000000	0.000000
60.369440	14.739311	21.418399	1.518889	-2.003341	2.328877	0.000000	-0.241719	0.000000	-0.000012	-0.000000	0.000000	0.000000
60.810400	13.601735	22.973471	1.070669	-1.509800	2.236738	0.000000	-0.176579	0.000000	-0.000013	-0.000001	0.000000	0.000000
61.251360	12.836470	24.061209	0.671366	-0.947564	2.172853	0.000000	-0.113451	0.000000	-0.000013	-0.000001	0.000000	0.000000
61.692320	12.408554	24.632122	0.302735	-0.342214	2.136495	0.000000	-0.051614	0.000000	-0.000013	-0.000001	0.000000	0.000000
62.134530	12.298491	24.659688	-0.022003	0.218171	2.127254	0.000000	0.004417	0.000000	-0.000014	-0.000002	0.000000	0.000000
62.431853	12.318766	24.533709	-0.046190	0.205540	2.128568	0.000000	0.004417	0.000000	-0.000015	-0.000002	0.000000	0.000000
62.765186	12.358599	24.401403	-0.073307	0.191379	2.130041	0.000000	0.004417	0.000000	-0.000015	-0.000002	0.000000	0.000000
63.098520	12.416509	24.278537	-0.100424	0.177218	2.131513	0.000000	0.004417	0.000000	-0.000016	-0.000002	0.000000	0.000000
63.433103	12.492816	24.164704	-0.127642	0.163005	2.132992	0.000000	0.004417	0.000000	-0.000016	-0.000002	0.000000	0.000000
63.730426	12.575909	24.071530	-0.120985	0.091333	2.134305	0.000000	-0.000818	0.000000	-0.000017	-0.000002	0.000000	0.000000
64.171386	12.842805	23.725899	-0.486574	0.689500	2.147488	0.000000	0.060663	0.000000	-0.000017	-0.000002	0.000000	0.000000
64.612346	13.440669	22.864604	-0.874393	1.256294	2.187908	0.000000	0.122835	0.000000	-0.000018	-0.000002	0.000000	0.000000
65.053306	14.396814	21.526834	-1.302161	1.765928	2.256026	0.000000	0.186406	0.000000	-0.000019	-0.000003	0.000000	0.000000
65.494266	15.754924	19.773457	-1.789421	2.195214	2.352618	0.000000	0.252101	0.000000	-0.000021	-0.000003	0.000000	0.000000
65.940226	17.600211	17.659448	-2.363125	2.525369	2.480356	0.000000	0.321068	0.000000	-0.000023	-0.000004	0.000000	0.000000
66.489286	19.965874	15.294617	-1.919944	1.807109	2.636271	0.000000	0.246026	0.000000	-0.000024	-0.000003	0.000000	0.000000
67.038346	21.767069	13.643635	-1.341147	1.217565	2.749724	0.000000	0.166620	0.000000	-0.000026	-0.000002	0.000000	0.000000
67.587406	22.876569	12.588907	-0.667619	0.714746	2.818700	0.000000	0.084259	0.000000	-0.000027	-0.000002	0.000000	0.000000
68.136466	23.216005	12.055306	0.053066	0.262836	2.841977	0.000000	0.000403	0.000000	-0.000028	-0.000001	0.000000	0.000000
68.435038	23.224388	11.887577	-0.020469	0.267429	2.844315	0.000000	0.007830	0.000000	-0.000028	-0.000001	0.000000	0.000000
68.768372	23.242820	11.719306	-0.034828	0.237383	2.846925	0.000000	0.007830	0.000000	-0.000028	-0.000001	0.000000	0.000000
69.101705	23.270825	11.571066	-0.049186	0.207337	2.849536	0.000000	0.007830	0.000000	-0.000028	-0.000001	0.000000	0.000000
69.436288	23.308561	11.442414	-0.063599	0.177178	2.852156	0.000000	0.007830	0.000000	-0.000029	-0.000001	0.000000	0.000000
69.733611	23.350188	11.345024	-0.137431	0.180028	2.854484	0.000000	0.015290	0.000000	-0.000029	-0.000001	0.000000	0.000000
70.282671	23.100064	11.374608	0.590285	-0.234227	2.839688	0.000000	-0.069108	0.000000	-0.000029	0.000000	0.000000	0.000000
