#ParticleID	Turn	x[m]	xp	y[m]	yp	z[m]	dE[GeV]# s	beta_x	beta_y	alpha_x	alpha_y	D_x	D_y	D_px	D_py	orbit_x	orbit_px	orbit_y	orbit_py
0.300000	11.823061	24.981019	-0.012139	-0.027609	2.618102	0.000000	0.000016	0.000000	0.000000	0.000001	0.000000	0.000000
0.601250	11.838052	25.001289	-0.037623	-0.039677	2.618106	0.000000	0.000016	0.000000	0.000000	0.000001	0.000000	0.000000
0.898573	11.867902	25.028425	-0.033671	-0.112965	2.618111	0.000000	-0.006404	0.000000	0.000001	0.000001	0.000000	0.000000
1.339533	12.049841	24.850438	-0.380490	0.515063	2.631580	0.000000	0.067553	0.000000	0.000001	0.000001	0.000000	0.000000
1.780493	12.544126	24.126840	-0.744693	1.119655	2.677800	0.000000	0.142280	0.000000	0.000001	0.000001	0.000000	0.000000
2.221453	13.373342	22.890552	-1.142919	1.673304	2.757296	0.000000	0.218627	0.000000	0.000001	0.000001	0.000000	0.000000
2.662413	14.575372	21.197825	-1.593361	2.150819	2.870976	0.000000	0.297464	0.000000	0.000002	0.000001	0.000000	0.000000
3.108373	16.225911	19.100851	-2.120895	2.531605	3.021993	0.000000	0.380178	0.000000	0.000002	0.000001	0.000000	0.000000
3.657433	18.342423	16.745699	-1.711079	1.783140	3.205462	0.000000	0.287140	0.000000	0.000002	0.000001	0.000000	0.000000
4.206493	19.939473	15.138302	-1.180400	1.161685	3.336372	0.000000	0.189009	0.000000	0.000003	0.000001	0.000000	0.000000
4.755553	20.904252	14.164167	-0.566344	0.622974	3.412400	0.000000	0.087525	0.000000	0.000003	0.000001	0.000000	0.000000
5.304613	21.168613	13.753909	0.087715	0.128636	3.432200	0.000000	-0.015511	0.000000	0.000003	0.000000	0.000000	0.000000
5.603185	21.153477	13.662293	0.018288	0.142275	3.430246	0.000000	-0.006543	0.000000	0.000003	0.000000	0.000000	0.000000
5.936519	21.146539	13.575740	0.002525	0.117383	3.428065	0.000000	-0.006543	0.000000	0.000004	0.000000	0.000000	0.000000
6.269852	21.150111	13.505782	-0.013238	0.092491	3.425883	0.000000	-0.006543	0.000000	0.000004	0.000000	0.000000	0.000000
6.604435	21.164263	13.452249	-0.029061	0.067506	3.423694	0.000000	-0.006543	0.000000	0.000004	0.000000	0.000000	0.000000
6.901758	21.185724	13.418709	-0.098473	0.080363	3.421748	0.000000	0.002397	0.000000	0.000004	0.000000	0.000000	0.000000
7.450818	20.932752	13.591107	0.556483	-0.396204	3.394863	0.000000	-0.100186	0.000000	0.000004	0.000000	0.000000	0.000000
7.999878	19.977987	14.299166	1.172132	-0.900993	3.312058	0.000000	-0.200992	0.000000	0.000004	0.000000	0.000000	0.000000
8.548938	18.388869	15.593321	1.704988	-1.469956	3.174804	0.000000	-0.298232	0.000000	0.000004	0.000000	0.000000	0.000000
9.097998	16.277644	17.565749	2.117411	-2.143622	2.985535	0.000000	-0.390183	0.000000	0.000004	-0.000000	0.000000	0.000000
9.543958	14.630440	19.323318	1.589335	-1.780811	2.829836	0.000000	-0.308475	0.000000	0.000004	-0.000000	0.000000	0.000000
9.984918	13.432268	20.703933	1.138164	-1.338205	2.711058	0.000000	-0.230764	0.000000	0.000004	0.000000	0.000000	0.000000
10.425878	12.607646	21.665763	0.738992	-0.834712	2.625935	0.000000	-0.155682	0.000000	0.000004	0.000000	0.000000	0.000000
10.866838	12.118899	22.165045	0.373583	-0.293241	2.573499	0.000000	-0.082372	0.000000	0.000004	0.000000	0.000000	0.000000
11.309048	11.943562	22.178544	0.054425	0.207127	2.553131	0.000000	-0.016262	0.000000	0.000005	0.000000	0.000000	0.000000
11.606371	11.918622	22.059534	0.029457	0.193146	2.548296	0.000000	-0.016262	0.000000	0.000005	0.000000	0.000000	0.000000
12.086371	11.909691	21.884948	-0.010851	0.170575	2.540491	0.000000	-0.016262	0.000000	0.000005	0.000000	0.000000	0.000000
12.566371	11.939456	21.732030	-0.051159	0.148004	2.532685	0.000000	-0.016262	0.000000	0.000005	0.000000	0.000000	0.000000
13.046371	12.007916	21.600780	-0.091467	0.125433	2.524879	0.000000	-0.016262	0.000000	0.000005	0.000000	0.000000	0.000000
13.526371	12.115073	21.491198	-0.131775	0.102862	2.517073	0.000000	-0.016262	0.000000	0.000006	0.000000	0.000000	0.000000
14.007621	12.261355	21.403084	-0.172188	0.080232	2.509247	0.000000	-0.016262	0.000000	0.000006	0.000000	0.000000	0.000000
14.304943	12.371169	21.359532	-0.166820	0.013874	2.504412	0.000000	-0.022403	0.000000	0.000006	0.000000	0.000000	0.000000
14.745903	12.676926	21.113499	-0.529200	0.541951	2.510165	0.000000	0.048524	0.000000	0.000006	0.000001	0.000000	0.000000
15.186863	13.311687	20.410880	-0.915758	1.045370	2.547287	0.000000	0.120003	0.000000	0.000006	0.000001	0.000000	0.000000
15.627823	14.304452	19.283644	-1.344154	1.501224	2.616198	0.000000	0.192849	0.000000	0.000007	0.000001	0.000000	0.000000
16.068783	15.700577	17.783080	-1.833961	1.888775	2.717686	0.000000	0.267892	0.000000	0.000007	0.000001	0.000000	0.000000
16.514743	17.587502	15.955958	-2.412314	2.191135	2.854599	0.000000	0.346448	0.000000	0.000008	0.000001	0.000000	0.000000
17.063803	20.010853	13.915730	-1.975194	1.546654	3.021087	0.000000	0.259108	0.000000	0.000008	0.000001	0.000000	0.000000
17.612863	21.874277	12.518936	-1.398557	1.012337	3.138286	0.000000	0.167173	0.000000	0.000009	0.000001	0.000000	0.000000
18.161923	23.046149	11.666084	-0.723133	0.550127	3.204118	0.000000	0.072273	0.000000	0.000009	0.000000	0.000000	0.000000
18.710983	23.443695	11.296427	0.003370	0.127101	3.217415	0.000000	-0.023909	0.000000	0.000009	0.000000	0.000000	0.000000
19.009556	23.482073	11.210991	-0.070658	0.129535	3.212786	0.000000	-0.015503	0.000000	0.000009	0.000000	0.000000	0.000000
19.342889	23.533934	11.134711	-0.084924	0.099303	3.207618	0.000000	-0.015503	0.000000	0.000009	0.000000	0.000000	0.000000
19.676223	23.595305	11.078586	-0.099190	0.069072	3.202450	0.000000	-0.015503	0.000000	0.000010	0.000000	0.000000	0.000000
20.010806	23.666764	11.042382	-0.230768	0.093438	3.197282	0.000000	0.000338	0.000000	0.000010	0.000000	0.000000	0.000000
20.308129	23.807923	10.994895	-0.306200	0.095002	3.197383	0.000000	0.008691	0.000000	0.000010	0.000000	0.000000	0.000000
20.857189	23.733546	11.112952	0.440860	-0.311287	3.175933	0.000000	-0.086710	0.000000	0.000010	-0.000000	0.000000	0.000000
21.406249	22.851122	11.686647	1.156781	-0.739749	3.102448	0.000000	-0.180573	0.000000	0.000010	-0.000000	0.000000	0.000000
21.955309	21.222979	12.756844	1.790992	-1.220901	2.978231	0.000000	-0.271233	0.000000	0.000009	-0.000001	0.000000	0.000000
22.504369	18.964123	14.399771	2.298696	-1.789015	2.805485	0.000000	-0.357082	0.000000	0.000009	-0.000001	0.000000	0.000000
22.950329	17.184020	15.874725	1.707016	-1.504400	2.663536	0.000000	-0.279866	0.000000	0.000008	-0.000001	0.000000	0.000000
23.391289	15.907856	17.050650	1.198021	-1.152191	2.556450	0.000000	-0.206292	0.000000	0.000008	-0.000001	0.000000	0.000000
23.832249	15.054843	17.891565	0.743761	-0.747559	2.481259	0.000000	-0.135067	0.000000	0.000008	-0.000000	0.000000	0.000000
24.273209	14.586011	18.359207	0.323481	-0.308914	2.437107	0.000000	-0.065380	0.000000	0.000008	-0.000000	0.000000	0.000000
24.715418	14.480055	18.432053	-0.046600	0.098520	2.423487	0.000000	-0.002381	0.000000	0.000008	0.000000	0.000000	0.000000
25.012741	14.513884	18.378311	-0.067178	0.082233	2.422779	0.000000	-0.002381	0.000000	0.000008	0.000000	0.000000	0.000000
25.346075	14.566359	18.329576	-0.090248	0.063973	2.421986	0.000000	-0.002381	0.000000	0.000008	0.000000	0.000000	0.000000
25.679408	14.634215	18.293014	-0.113318	0.045713	2.421192	0.000000	-0.002381	0.000000	0.000008	0.000000	0.000000	0.000000
26.013991	14.717493	18.268928	-0.017077	-0.120822	2.420371	0.000000	-0.022017	0.000000	0.000008	-0.000000	0.000000	0.000000
26.311314	14.733656	18.345683	-0.001156	-0.182320	2.413825	0.000000	-0.027936	0.000000	0.000008	-0.000000	0.000000	0.000000
26.752274	14.916216	18.307484	-0.414419	0.268617	2.416618	0.000000	0.040618	0.000000	0.000008	0.000000	0.000000	0.000000
27.193234	15.470181	17.875485	-0.846616	0.707333	2.449714	0.000000	0.109633	0.000000	0.000008	0.000000	0.000000	0.000000
27.634194	16.420860	17.069342	-1.317492	1.113865	2.513489	0.000000	0.179898	0.000000	0.000008	0.000001	0.000000	0.000000
28.075154	17.811687	15.925734	-1.848561	1.469718	2.608670	0.000000	0.252211	0.000000	0.000009	0.000001	0.000000	0.000000
28.521114	19.730371	14.479468	-2.469047	1.759612	2.737943	0.000000	0.327841	0.000000	0.000009	0.000001	0.000000	0.000000
29.070174	22.169032	12.867958	-1.946180	1.192746	2.895280	0.000000	0.244429	0.000000	0.000009	0.000001	0.000000	0.000000
29.619234	23.954176	11.828910	-1.285846	0.710837	3.005559	0.000000	0.156683	0.000000	0.000010	0.000000	0.000000	0.000000
30.168294	24.959709	11.288314	-0.534685	0.279559	3.066825	0.000000	0.066157	0.000000	0.000010	0.000000	0.000000	0.000000
30.717354	25.114605	11.207666	0.254243	-0.131807	3.077992	0.000000	-0.025542	0.000000	0.000010	-0.000000	0.000000	0.000000
31.015927	25.005642	11.276926	0.176317	-0.129446	3.072766	0.000000	-0.017501	0.000000	0.000010	-0.000000	0.000000	0.000000
31.349260	24.892679	11.373241	0.162572	-0.159500	3.066933	0.000000	-0.017501	0.000000	0.000010	-0.000000	0.000000	0.000000
31.682593	24.788879	11.489593	0.148828	-0.189554	3.061099	0.000000	-0.017501	0.000000	0.000010	-0.000000	0.000000	0.000000
32.017177	24.693905	11.626529	0.135031	-0.219721	3.055244	0.000000	-0.017501	0.000000	0.000010	-0.000000	0.000000	0.000000
32.314499	24.617254	11.765156	0.058456	-0.215791	3.050040	0.000000	-0.009532	0.000000	0.000010	-0.000000	0.000000	0.000000
32.863559	24.131325	12.241400	0.821324	-0.656711	3.019921	0.000000	-0.100019	0.000000	0.000009	-0.000000	0.000000	0.000000
33.412619	22.834730	13.224520	1.526178	-1.144408	2.940534	0.000000	-0.188731	0.000000	0.000009	-0.000001	0.000000	0.000000
33.961679	20.819054	14.784541	2.123230	-1.713619	2.813287	0.000000	-0.274096	0.000000	0.000009	-0.000001	0.000000	0.000000
34.510739	18.226674	17.032578	2.570307	-2.404887	2.640437	0.000000	-0.354600	0.000000	0.000008	-0.000001	0.000000	0.000000
34.956699	16.211061	19.043328	1.965604	-2.085098	2.498644	0.000000	-0.281662	0.000000	0.000007	-0.000001	0.000000	0.000000
35.397659	14.708099	20.706026	1.455711	-1.671186	2.389826	0.000000	-0.212361	0.000000	0.000007	-0.000001	0.000000	0.000000
35.838619	13.623907	21.968635	1.012325	-1.181236	2.311004	0.000000	-0.145479	0.000000	0.000006	-0.000001	0.000000	0.000000
36.279579	12.908951	22.773707	0.615189	-0.637541	2.261283	0.000000	-0.080253	0.000000	0.000006	-0.000001	0.000000	0.000000
36.721789	12.529873	23.084915	0.276780	-0.121500	2.240067	0.000000	-0.021435	0.000000	0.000006	-0.000000	0.000000	0.000000
37.019112	12.372883	23.161051	0.251233	-0.134570	2.233694	0.000000	-0.021435	0.000000	0.000006	-0.000000	0.000000	0.000000
37.352445	12.214942	23.255648	0.222592	-0.149223	2.226550	0.000000	-0.021435	0.000000	0.000006	-0.000000	0.000000	0.000000
37.685779	12.076094	23.360014	0.193951	-0.163875	2.219405	0.000000	-0.021435	0.000000	0.000005	-0.000000	0.000000	0.000000
38.020362	11.955928	23.474595	0.165202	-0.178583	2.212233	0.000000	-0.021435	0.000000	0.000005	-0.000000	0.000000	0.000000
38.317684	11.865287	23.584674	0.168751	-0.249486	2.205860	0.000000	-0.026844	0.000000	0.000005	-0.000000	0.000000	0.000000
38.758644	11.867772	23.543483	-0.174409	0.342544	2.207952	0.000000	0.036339	0.000000	0.000005	-0.000000	0.000000	0.000000
39.199604	12.175253	22.985072	-0.525536	0.918989	2.237970	0.000000	0.099936	0.000000	0.000005	-0.000000	0.000000	0.000000
39.640564	12.801778	21.934850	-0.900674	1.453621	2.296255	0.000000	0.164671	0.000000	0.000005	-0.000000	0.000000	0.000000
40.081524	13.775971	20.440599	-1.316962	1.922114	2.383471	0.000000	0.231281	0.000000	0.000005	0.000000	0.000000	0.000000
40.527484	15.159910	18.547741	-1.797242	2.304433	2.502085	0.000000	0.300931	0.000000	0.000005	0.000000	0.000000	0.000000
41.076544	16.926106	16.420700	-1.400480	1.592402	2.646782	0.000000	0.225367	0.000000	0.000005	-0.000000	0.000000	0.000000
41.625604	18.199378	15.009055	-0.904795	0.993795	2.748830	0.000000	0.145805	0.000000	0.000005	-0.000000	0.000000	0.000000
42.174664	18.889787	14.212257	-0.345200	0.465974	2.806419	0.000000	0.063657	0.000000	0.000005	-0.000000	0.000000	0.000000
42.723724	18.948566	13.973552	0.238779	-0.028657	2.818527	0.000000	-0.019620	0.000000	0.000005	-0.000000	0.000000	0.000000
43.022297	18.840417	13.975244	0.172950	-0.013516	2.814867	0.000000	-0.012256	0.000000	0.000004	-0.000000	0.000000	0.000000
43.502297	18.686979	14.004708	0.146711	-0.047869	2.808985	0.000000	-0.012256	0.000000	0.000004	-0.000000	0.000000	0.000000
43.982297	18.558732	14.067152	0.120472	-0.082222	2.803102	0.000000	-0.012256	0.000000	0.000004	-0.000000	0.000000	0.000000
44.462297	18.455673	14.162574	0.094233	-0.116574	2.797220	0.000000	-0.012256	0.000000	0.000004	-0.000000	0.000000	0.000000
44.942297	18.377805	14.290974	0.067993	-0.150927	2.791337	0.000000	-0.012256	0.000000	0.000003	-0.000000	0.000000	0.000000
45.423547	18.325249	14.452638	-0.049108	-0.113762	2.785456	0.000000	0.001545	0.000000	0.000003	-0.000000	0.000000	0.000000
45.720870	18.359286	14.526481	-0.113340	-0.096646	2.785916	0.000000	0.008824	0.000000	0.000003	-0.000000	0.000000	0.000000
46.269930	18.174608	14.913609	0.447702	-0.612589	2.768188	0.000000	-0.073306	0.000000	0.000003	-0.000001	0.000000	0.000000
46.818990	17.387635	15.887797	0.977121	-1.172166	2.705657	0.000000	-0.154135	0.000000	0.000003	-0.000001	0.000000	0.000000
47.368050	16.053957	17.518433	1.437521	-1.815233	2.599432	0.000000	-0.232230	0.000000	0.000002	-0.000001	0.000000	0.000000
47.917110	14.267777	19.921664	1.796381	-2.587595	2.451398	0.000000	-0.306206	0.000000	0.000002	-0.000001	0.000000	0.000000
48.363070	12.877712	22.058403	1.331680	-2.183587	2.330135	0.000000	-0.237905	0.000000	0.000001	-0.000001	0.000000	0.000000
48.804030	11.883474	23.769261	0.931587	-1.681498	2.239688	0.000000	-0.172712	0.000000	0.000001	-0.000001	0.000000	0.000000
49.244990	11.222055	25.001761	0.574056	-1.102903	2.177529	0.000000	-0.109485	0.000000	0.000001	-0.000001	0.000000	0.000000
49.685950	10.863236	25.699824	0.242752	-0.474126	2.142949	0.000000	-0.047505	0.000000	0.000001	-0.000001	0.000000	0.000000
50.128160	10.790752	25.831407	-0.051116	0.112827	2.135566	0.000000	0.008697	0.000000	0.000000	-0.000001	0.000000	0.000000
50.425482	10.829362	25.767781	-0.078741	0.101171	2.138151	0.000000	0.008697	0.000000	0.000000	-0.000001	0.000000	0.000000
50.758816	10.892180	25.704690	-0.109713	0.088102	2.141051	0.000000	0.008697	0.000000	-0.000000	-0.000001	0.000000	0.000000
51.092149	10.975645	25.650311	-0.140684	0.075034	2.143950	0.000000	0.008697	0.000000	-0.000000	-0.000001	0.000000	0.000000
51.426732	11.079963	25.605009	-0.081884	-0.145804	2.146838	0.000000	-0.008720	0.000000	-0.000000	-0.000001	0.000000	0.000000
51.724055	11.136687	25.695237	-0.081587	-0.220676	2.144246	0.000000	-0.013978	0.000000	-0.000001	-0.000001	0.000000	0.000000
52.165015	11.354030	25.604004	-0.413170	0.426785	2.151670	0.000000	0.047685	0.000000	-0.000001	-0.000001	0.000000	0.000000
52.605975	11.870991	24.948177	-0.763630	1.054827	2.186380	0.000000	0.109891	0.000000	-0.000001	-0.000001	0.000000	0.000000
53.046935	12.711187	23.757595	-1.148978	1.634875	2.248770	0.000000	0.173349	0.000000	-0.000002	-0.000001	0.000000	0.000000
53.487895	13.913005	22.086430	-1.586820	2.140538	2.339551	0.000000	0.238782	0.000000	-0.000002	-0.000001	0.000000	0.000000
53.933855	15.551952	19.985729	-2.101392	2.550144	2.461260	0.000000	0.307332	0.000000	-0.000002	-0.000001	0.000000	0.000000
54.482915	17.662016	17.621956	-1.718907	1.780394	2.609825	0.000000	0.233028	0.000000	-0.000003	-0.000001	0.000000	0.000000
55.031975	19.282502	16.029281	-1.215006	1.137459	2.716395	0.000000	0.154591	0.000000	-0.000003	-0.000001	0.000000	0.000000
55.581035	20.298949	15.094260	-0.625284	0.575542	2.779081	0.000000	0.073411	0.000000	-0.000003	-0.000001	0.000000	0.000000
56.130095	20.639559	14.750294	0.008605	0.054619	2.796770	0.000000	-0.009071	0.000000	-0.000004	-0.000000	0.000000	0.000000
56.428668	20.670952	14.700760	-0.059819	0.072743	2.796244	0.000000	-0.001763	0.000000	-0.000004	-0.000000	0.000000	0.000000
56.762001	20.716226	14.659863	-0.076003	0.049948	2.795656	0.000000	-0.001763	0.000000	-0.000004	-0.000000	0.000000	0.000000
57.095334	20.772289	14.634162	-0.092186	0.027154	2.795069	0.000000	-0.001763	0.000000	-0.000004	-0.000000	0.000000	0.000000
57.429918	20.839412	14.623647	-0.108430	0.004274	2.794479	0.000000	-0.001763	0.000000	-0.000004	-0.000000	0.000000	0.000000
57.727240	20.908181	14.627151	-0.177497	0.022161	2.793955	0.000000	0.005537	0.000000	-0.000004	-0.000000	0.000000	0.000000
58.276300	20.746364	14.883734	0.470468	-0.492233	2.774356	0.000000	-0.076822	0.000000	-0.000004	-0.000000	0.000000	0.000000
58.825360	19.887123	15.721007	1.085201	-1.041688	2.709846	0.000000	-0.157819	0.000000	-0.000005	-0.000000	0.000000	0.000000
59.374420	18.391148	17.198605	1.623281	-1.665340	2.601566	0.000000	-0.236017	0.000000	-0.000005	-0.000000	0.000000	0.000000
59.923480	16.364110	19.421776	2.046700	-2.407610	2.451440	0.000000	-0.310028	0.000000	-0.000005	0.000000	0.000000	0.000000
60.369440	14.777516	21.397789	1.523604	-2.004608	2.328469	0.000000	-0.241749	0.000000	-0.000005	0.000000	0.000000	0.000000
60.810400	13.636263	22.954294	1.074325	-1.511770	2.236315	0.000000	-0.176620	0.000000	-0.000005	-0.000000	0.000000	0.000000
61.251360	12.868178	24.044048	0.674129	-0.950147	2.172409	0.000000	-0.113503	0.000000	-0.000005	-0.000000	0.000000	0.000000
61.692320	12.438171	24.617467	0.304733	-0.345294	2.136025	0.000000	-0.051678	0.000000	-0.000005	-0.000000	0.000000	0.000000
62.134530	12.326645	24.647926	-0.020613	0.214769	2.126753	0.000000	0.004342	0.000000	-0.000005	-0.000000	0.000000	0.000000
62.431853	12.346078	24.523967	-0.044744	0.202150	2.128044	0.000000	0.004342	0.000000	-0.000005	-0.000000	0.000000	0.000000
62.765186	12.384925	24.393916	-0.071797	0.188002	2.129492	0.000000	0.004342	0.000000	-0.000005	-0.000000	0.000000	0.000000
63.098520	12.441807	24.273297	-0.098850	0.173855	2.130939	0.000000	0.004342	0.000000	-0.000005	-0.000000	0.000000	0.000000
63.433103	12.517040	24.161710	-0.126005	0.159654	2.132392	0.000000	0.004342	0.000000	-0.000005	-0.000000	0.000000	0.000000
63.730426	12.599143	24.070525	-0.119237	0.088004	2.133684	0.000000	-0.000890	0.000000	-0.000006	-0.000000	0.000000	0.000000
64.171386	12.864716	23.727815	-0.485310	0.686230	2.146831	0.000000	0.060574	0.000000	-0.000006	-0.000001	0.000000	0.000000
64.612346	13.461657	22.869322	-0.873555	1.253233	2.187207	0.000000	0.122729	0.000000	-0.000006	-0.000001	0.000000	0.000000
65.053306	14.417236	21.534108	-1.301710	1.763216	2.255273	0.000000	0.186281	0.000000	-0.000006	-0.000001	0.000000	0.000000
65.494266	15.775112	19.782923	-1.789336	2.192973	2.351804	0.000000	0.251955	0.000000	-0.000007	-0.000001	0.000000	0.000000
65.940226	17.620487	17.670660	-2.363405	2.523708	2.479471	0.000000	0.320901	0.000000	-0.000007	-0.000001	0.000000	0.000000
66.489286	19.985991	15.307651	-1.919373	1.805433	2.635302	0.000000	0.245889	0.000000	-0.000008	-0.000001	0.000000	0.000000
67.038346	21.786109	13.658571	-1.339766	1.215756	2.748687	0.000000	0.166515	0.000000	-0.000008	-0.000001	0.000000	0.000000
67.587406	22.893690	12.605961	-0.665524	0.712674	2.817614	0.000000	0.084188	0.000000	-0.000009	-0.000000	0.000000	0.000000
68.136466	23.230499	12.074845	0.055726	0.260354	2.840862	0.000000	0.000368	0.000000	-0.000009	-0.000000	0.000000	0.000000
68.435038	23.237308	11.908546	-0.017828	0.265072	2.843189	0.000000	0.007791	0.000000	-0.000009	-0.000000	0.000000	0.000000
68.768372	23.253976	11.741817	-0.032177	0.235114	2.845786	0.000000	0.007791	0.000000	-0.000009	-0.000000	0.000000	0.000000
69.101705	23.280211	11.595060	-0.046527	0.205157	2.848383	0.000000	0.007791	0.000000	-0.000009	-0.000000	0.000000	0.000000
69.436288	23.316164	11.467837	-0.060930	0.175086	2.850990	0.000000	0.007791	0.000000	-0.000009	-0.000000	0.000000	0.000000
69.733611	23.356201	11.371668	-0.134759	0.178079	2.853306	0.000000	0.015247	0.000000	-0.000009	-0.000000	0.000000	0.000000
70.282671	23.103058	11.403808	0.593078	-0.236962	2.838497	0.000000	-0.069113	0.000000	-0.000009	0.000000	0.000000	0.000000
