#ParticleID	Turn	x[m]	xp	y[m]	yp	z[m]	dE[GeV]# s	beta_x	beta_y	alpha_x	alpha_y	D_x	D_y	D_px	D_py	orbit_x	orbit_px	orbit_y	orbit_py
0.300000	11.805270	25.052676	-0.010183	-0.026879	2.618216	0.000000	-0.000027	0.000000	-0.000001	0.000002	0.000000	0.000000
0.601250	11.819094	25.072496	-0.035704	-0.038913	2.618208	0.000000	-0.000027	0.000000	-0.000001	0.000002	0.000000	0.000000
0.898573	11.847814	25.099166	-0.031838	-0.112339	2.618199	0.000000	-0.006447	0.000000	-0.000000	0.000002	0.000000	0.000000
1.339533	12.027920	24.919805	-0.378152	0.517544	2.631649	0.000000	0.067512	0.000000	0.000001	0.000002	0.000000	0.000000
1.780493	12.519883	24.193237	-0.741743	1.123880	2.677851	0.000000	0.142240	0.000000	0.000001	0.000002	0.000000	0.000000
2.221453	13.346180	22.952523	-1.139222	1.679080	2.757330	0.000000	0.218588	0.000000	0.000002	0.000002	0.000000	0.000000
2.662413	14.544560	21.254113	-1.588749	2.157883	2.870991	0.000000	0.297426	0.000000	0.000003	0.000002	0.000000	0.000000
3.108373	16.190496	19.150378	-2.115147	2.539637	3.021992	0.000000	0.380141	0.000000	0.000004	0.000002	0.000000	0.000000
3.657433	18.301169	16.787524	-1.706252	1.789219	3.205439	0.000000	0.287103	0.000000	0.000005	0.000002	0.000000	0.000000
4.206493	19.893584	15.174320	-1.176836	1.166243	3.336328	0.000000	0.188973	0.000000	0.000006	0.000002	0.000000	0.000000
4.755553	20.855263	14.195863	-0.564294	0.626335	3.412337	0.000000	0.087491	0.000000	0.000007	0.000001	0.000000	0.000000
5.304613	21.118276	13.782459	0.088106	0.131040	3.432117	0.000000	-0.015543	0.000000	0.000007	0.000001	0.000000	0.000000
5.603185	21.102837	13.689355	0.018778	0.144781	3.430154	0.000000	-0.006576	0.000000	0.000008	0.000001	0.000000	0.000000
5.936519	21.095585	13.601121	0.002977	0.119921	3.427961	0.000000	-0.006576	0.000000	0.000008	0.000001	0.000000	0.000000
6.269852	21.098868	13.529461	-0.012824	0.095060	3.425769	0.000000	-0.006576	0.000000	0.000009	0.000001	0.000000	0.000000
6.604435	21.112756	13.474199	-0.028685	0.070107	3.423568	0.000000	-0.006576	0.000000	0.000009	0.000001	0.000000	0.000000
6.901758	21.134004	13.439103	-0.097994	0.083044	3.421613	0.000000	0.002363	0.000000	0.000009	0.000001	0.000000	0.000000
7.450818	20.881458	13.608861	0.555231	-0.394048	3.394709	0.000000	-0.100215	0.000000	0.000010	0.000001	0.000000	0.000000
7.999878	19.928983	14.314769	1.169237	-0.899208	3.311890	0.000000	-0.201015	0.000000	0.000010	0.000001	0.000000	0.000000
8.548938	18.343857	15.607109	1.700655	-1.468416	3.174625	0.000000	-0.298250	0.000000	0.000011	0.000000	0.000000	0.000000
9.097998	16.238045	17.577929	2.111946	-2.142216	2.985347	0.000000	-0.390195	0.000000	0.000011	-0.000000	0.000000	0.000000
9.543958	14.595174	19.334000	1.585049	-1.778872	2.829641	0.000000	-0.308492	0.000000	0.000011	0.000000	0.000000	0.000000
9.984918	13.400339	20.712705	1.134852	-1.335828	2.710854	0.000000	-0.230786	0.000000	0.000011	0.000000	0.000000	0.000000
10.425878	12.578265	21.672284	0.736504	-0.832004	2.625721	0.000000	-0.155709	0.000000	0.000011	0.000001	0.000000	0.000000
10.866838	12.091392	22.169077	0.371804	-0.290325	2.573271	0.000000	-0.082405	0.000000	0.000012	0.000001	0.000000	0.000000
11.309048	11.917346	22.179955	0.053207	0.210117	2.552887	0.000000	-0.016300	0.000000	0.000012	0.000001	0.000000	0.000000
11.606371	11.893145	22.059171	0.028188	0.196120	2.548040	0.000000	-0.016300	0.000000	0.000012	0.000001	0.000000	0.000000
12.086371	11.885472	21.881742	-0.012203	0.173524	2.540216	0.000000	-0.016300	0.000000	0.000013	0.000001	0.000000	0.000000
12.566371	11.916575	21.726006	-0.052595	0.150927	2.532391	0.000000	-0.016300	0.000000	0.000014	0.000001	0.000000	0.000000
13.046371	11.986454	21.591962	-0.092986	0.128331	2.524566	0.000000	-0.016300	0.000000	0.000014	0.000001	0.000000	0.000000
13.526371	12.095109	21.479611	-0.133378	0.105734	2.516742	0.000000	-0.016300	0.000000	0.000015	0.000001	0.000000	0.000000
14.007621	12.242974	21.388745	-0.173874	0.083079	2.508897	0.000000	-0.016300	0.000000	0.000016	0.000001	0.000000	0.000000
14.304943	12.353807	21.343504	-0.168603	0.016749	2.504050	0.000000	-0.022440	0.000000	0.000016	0.000001	0.000000	0.000000
14.745903	12.660983	21.095144	-0.530646	0.544332	2.509785	0.000000	0.048478	0.000000	0.000017	0.000002	0.000000	0.000000
15.186863	13.296895	20.390685	-0.916933	1.047148	2.546883	0.000000	0.119947	0.000000	0.000018	0.000002	0.000000	0.000000
15.627823	14.290597	19.262177	-1.345112	1.502319	2.615767	0.000000	0.192782	0.000000	0.000019	0.000003	0.000000	0.000000
16.068783	15.687488	17.760968	-1.834745	1.889136	2.717221	0.000000	0.267813	0.000000	0.000020	0.000003	0.000000	0.000000
16.514743	17.575050	15.933862	-2.412961	2.190741	2.854096	0.000000	0.346357	0.000000	0.000021	0.000004	0.000000	0.000000
17.063803	19.999459	13.893799	-1.976462	1.546746	3.020537	0.000000	0.259034	0.000000	0.000023	0.000003	0.000000	0.000000
17.612863	21.864577	12.496633	-1.400355	1.012923	3.137700	0.000000	0.167118	0.000000	0.000025	0.000002	0.000000	0.000000
18.161923	23.038659	11.642849	-0.725335	0.551248	3.203506	0.000000	0.072237	0.000000	0.000026	0.000001	0.000000	0.000000
18.710983	23.438776	11.271632	0.000920	0.128837	3.216787	0.000000	-0.023926	0.000000	0.000026	0.000001	0.000000	0.000000
19.009556	23.478605	11.185222	-0.073093	0.131129	3.212153	0.000000	-0.015523	0.000000	0.000026	0.000001	0.000000	0.000000
19.342889	23.532091	11.107907	-0.087366	0.100815	3.206978	0.000000	-0.015523	0.000000	0.000026	0.000001	0.000000	0.000000
19.676223	23.595093	11.050802	-0.101639	0.070502	3.201804	0.000000	-0.015523	0.000000	0.000027	0.000001	0.000000	0.000000
20.010806	23.668193	11.013668	-0.233231	0.094643	3.196630	0.000000	0.000315	0.000000	0.000027	0.000001	0.000000	0.000000
20.308129	23.810821	10.965488	-0.308676	0.096050	3.196723	0.000000	0.008666	0.000000	0.000027	0.000001	0.000000	0.000000
20.857189	23.739097	11.081937	0.438534	-0.309390	3.175265	0.000000	-0.086714	0.000000	0.000027	-0.000000	0.000000	0.000000
21.406249	22.859069	11.653024	1.154767	-0.736867	3.101784	0.000000	-0.180555	0.000000	0.000027	-0.000001	0.000000	0.000000
21.955309	21.232899	12.719426	1.789433	-1.216829	2.977583	0.000000	-0.271194	0.000000	0.000026	-0.000002	0.000000	0.000000
22.504369	18.975451	14.357100	2.297703	-1.783463	2.804865	0.000000	-0.357023	0.000000	0.000025	-0.000003	0.000000	0.000000
22.950329	17.196283	15.827530	1.705900	-1.499851	2.662940	0.000000	-0.279822	0.000000	0.000024	-0.000002	0.000000	0.000000
23.391289	15.921176	16.999963	1.196731	-1.148850	2.555870	0.000000	-0.206263	0.000000	0.000023	-0.000001	0.000000	0.000000
23.832249	15.069399	17.838521	0.742238	-0.745576	2.480689	0.000000	-0.135053	0.000000	0.000023	-0.000001	0.000000	0.000000
24.273209	14.602037	18.305048	0.321656	-0.308380	2.436539	0.000000	-0.065381	0.000000	0.000022	-0.000000	0.000000	0.000000
24.715418	14.497860	18.378076	-0.048772	0.097720	2.422916	0.000000	-0.002394	0.000000	0.000022	0.000000	0.000000	0.000000
25.012741	14.532974	18.324823	-0.069329	0.081387	2.422204	0.000000	-0.002394	0.000000	0.000022	0.000000	0.000000	0.000000
25.346075	14.586875	18.276669	-0.092376	0.063076	2.421406	0.000000	-0.002394	0.000000	0.000023	0.000000	0.000000	0.000000
25.679408	14.656141	18.240722	-0.115422	0.044765	2.420607	0.000000	-0.002394	0.000000	0.000023	0.000000	0.000000	0.000000
26.013991	14.740819	18.217285	-0.018968	-0.121401	2.419782	0.000000	-0.022025	0.000000	0.000023	0.000000	0.000000	0.000000
26.311314	14.758098	18.294400	-0.002962	-0.182817	2.413233	0.000000	-0.027942	0.000000	0.000023	0.000000	0.000000	0.000000
26.752274	14.942519	18.257251	-0.416852	0.266741	2.416020	0.000000	0.040596	0.000000	0.000023	0.000001	0.000000	0.000000
27.193234	15.498946	17.827486	-0.849787	0.704162	2.449103	0.000000	0.109596	0.000000	0.000023	0.000001	0.000000	0.000000
27.634194	16.452800	17.024659	-1.321547	1.109544	2.512857	0.000000	0.179845	0.000000	0.000024	0.000002	0.000000	0.000000
28.075154	17.847659	15.885298	-1.853684	1.464443	2.608010	0.000000	0.252141	0.000000	0.000025	0.000002	0.000000	0.000000
28.521114	19.771481	14.444076	-2.475484	1.753622	2.737248	0.000000	0.327753	0.000000	0.000026	0.000003	0.000000	0.000000
29.070174	22.216660	12.838360	-1.951543	1.188122	2.894542	0.000000	0.244365	0.000000	0.000028	0.000002	0.000000	0.000000
29.619234	24.006926	11.803795	-1.289755	0.707248	3.004792	0.000000	0.156643	0.000000	0.000029	0.000001	0.000000	0.000000
30.168294	25.015823	11.266690	-0.536865	0.276751	3.066043	0.000000	0.066142	0.000000	0.000029	0.000000	0.000000	0.000000
30.717354	25.172088	11.188790	0.253946	-0.134034	3.077208	0.000000	-0.025532	0.000000	0.000029	-0.000001	0.000000	0.000000
31.015927	25.063376	11.259430	0.175911	-0.131785	3.071985	0.000000	-0.017494	0.000000	0.000029	-0.000000	0.000000	0.000000
31.349260	24.950673	11.357326	0.162200	-0.161904	3.066154	0.000000	-0.017494	0.000000	0.000029	-0.000000	0.000000	0.000000
31.682593	24.847110	11.475302	0.148489	-0.192023	3.060323	0.000000	-0.017494	0.000000	0.000029	-0.000000	0.000000	0.000000
32.017177	24.752351	11.613912	0.134726	-0.222255	3.054470	0.000000	-0.017494	0.000000	0.000028	-0.000000	0.000000	0.000000
32.314499	24.675873	11.754063	0.058038	-0.218416	3.049269	0.000000	-0.009528	0.000000	0.000028	-0.000000	0.000000	0.000000
32.863559	24.189333	12.233083	0.822849	-0.659169	3.019159	0.000000	-0.099990	0.000000	0.000028	-0.000001	0.000000	0.000000
33.412619	22.890039	13.218890	1.529538	-1.146874	2.939795	0.000000	-0.188679	0.000000	0.000027	-0.000002	0.000000	0.000000
33.961679	20.869768	14.781702	2.128187	-1.716267	2.812584	0.000000	-0.274020	0.000000	0.000025	-0.000003	0.000000	0.000000
34.510739	18.271221	17.032834	2.576512	-2.407907	2.639784	0.000000	-0.354501	0.000000	0.000023	-0.000004	0.000000	0.000000
34.956699	16.250692	19.046422	1.970458	-2.088416	2.498031	0.000000	-0.281581	0.000000	0.000022	-0.000003	0.000000	0.000000
35.397659	14.743956	20.712121	1.459448	-1.674647	2.389246	0.000000	-0.212295	0.000000	0.000021	-0.000003	0.000000	0.000000
35.838619	13.656895	21.977788	1.015116	-1.184683	2.310452	0.000000	-0.145427	0.000000	0.000020	-0.000002	0.000000	0.000000
36.279579	12.939845	22.785836	0.617162	-0.640817	2.260751	0.000000	-0.080215	0.000000	0.000019	-0.000002	0.000000	0.000000
36.721789	12.559351	23.099809	0.278093	-0.124485	2.239549	0.000000	-0.021408	0.000000	0.000018	-0.000001	0.000000	0.000000
37.019112	12.401567	23.177720	0.252589	-0.137556	2.233185	0.000000	-0.021408	0.000000	0.000018	-0.000001	0.000000	0.000000
37.352445	12.242706	23.274309	0.223996	-0.152210	2.226049	0.000000	-0.021408	0.000000	0.000017	-0.000001	0.000000	0.000000
37.685779	12.102907	23.380667	0.195402	-0.166864	2.218913	0.000000	-0.021408	0.000000	0.000017	-0.000001	0.000000	0.000000
38.020362	11.981753	23.497247	0.166702	-0.181572	2.211751	0.000000	-0.021408	0.000000	0.000016	-0.000001	0.000000	0.000000
38.317684	11.890207	23.609105	0.170352	-0.252531	2.205386	0.000000	-0.026816	0.000000	0.000016	-0.000001	0.000000	0.000000
38.758644	11.891528	23.570304	-0.173359	0.340189	2.207488	0.000000	0.036355	0.000000	0.000016	-0.000001	0.000000	0.000000
39.199604	12.198308	23.013626	-0.524990	0.917430	2.237510	0.000000	0.099940	0.000000	0.000015	-0.000000	0.000000	0.000000
39.640564	12.824563	21.964400	-0.900606	1.452929	2.295794	0.000000	0.164663	0.000000	0.000015	-0.000000	0.000000	0.000000
40.081524	13.798905	20.470364	-1.317368	1.922321	2.383005	0.000000	0.231262	0.000000	0.000015	0.000000	0.000000	0.000000
40.527484	15.183427	18.576918	-1.798146	2.305535	2.501607	0.000000	0.300899	0.000000	0.000015	0.000001	0.000000	0.000000
41.076544	16.950123	16.449092	-1.400481	1.592737	2.646291	0.000000	0.225351	0.000000	0.000016	0.000000	0.000000	0.000000
41.625604	18.222898	15.037487	-0.903893	0.993386	2.748334	0.000000	0.145805	0.000000	0.000016	-0.000000	0.000000	0.000000
42.174664	18.911847	14.241558	-0.343459	0.464792	2.805928	0.000000	0.063673	0.000000	0.000015	-0.000001	0.000000	0.000000
42.723724	18.968308	14.004612	0.241235	-0.030696	2.818048	0.000000	-0.019588	0.000000	0.000015	-0.000001	0.000000	0.000000
43.022297	18.858720	14.007460	0.175362	-0.015429	2.814398	0.000000	-0.012226	0.000000	0.000014	-0.000001	0.000000	0.000000
43.502297	18.702965	14.038725	0.149127	-0.049705	2.808530	0.000000	-0.012226	0.000000	0.000014	-0.000001	0.000000	0.000000
43.982297	18.572397	14.102894	0.122891	-0.083981	2.802662	0.000000	-0.012226	0.000000	0.000013	-0.000001	0.000000	0.000000
44.462297	18.467014	14.199968	0.096656	-0.118256	2.796794	0.000000	-0.012226	0.000000	0.000013	-0.000001	0.000000	0.000000
44.942297	18.386816	14.329946	0.070421	-0.152532	2.790926	0.000000	-0.012226	0.000000	0.000012	-0.000001	0.000000	0.000000
45.423547	18.331922	14.493117	-0.046709	-0.115089	2.785060	0.000000	0.001573	0.000000	0.000011	-0.000001	0.000000	0.000000
45.720870	18.364530	14.567734	-0.110942	-0.097816	2.785528	0.000000	0.008850	0.000000	0.000011	-0.000001	0.000000	0.000000
46.269930	18.177142	14.956842	0.450208	-0.615046	2.767818	0.000000	-0.073267	0.000000	0.000010	-0.000002	0.000000	0.000000
46.818990	17.387440	15.934509	0.979557	-1.176084	2.705312	0.000000	-0.154085	0.000000	0.000009	-0.000002	0.000000	0.000000
47.368050	16.051204	17.570373	1.439715	-1.820893	2.599119	0.000000	-0.232169	0.000000	0.000008	-0.000002	0.000000	0.000000
47.917110	14.262819	19.980954	1.798179	-2.595399	2.451121	0.000000	-0.306136	0.000000	0.000007	-0.000002	0.000000	0.000000
48.363070	12.871191	22.124089	1.333399	-2.190066	2.329889	0.000000	-0.237842	0.000000	0.000006	-0.000002	0.000000	0.000000
48.804030	11.875441	23.839968	0.933308	-1.686362	2.239469	0.000000	-0.172654	0.000000	0.000005	-0.000002	0.000000	0.000000
49.244990	11.212474	25.075962	0.575858	-1.105931	2.177335	0.000000	-0.109433	0.000000	0.000004	-0.000002	0.000000	0.000000
49.685950	10.852000	25.775832	0.244717	-0.475181	2.142777	0.000000	-0.047458	0.000000	0.000003	-0.000002	0.000000	0.000000
50.128160	10.777673	25.907452	-0.048930	0.113610	2.135414	0.000000	0.008740	0.000000	0.000003	-0.000002	0.000000	0.000000
50.425482	10.814991	25.843350	-0.076583	0.101985	2.138013	0.000000	0.008740	0.000000	0.000002	-0.000002	0.000000	0.000000
50.758816	10.876381	25.779704	-0.107585	0.088953	2.140927	0.000000	0.008740	0.000000	0.000001	-0.000002	0.000000	0.000000
51.092149	10.958439	25.724746	-0.138588	0.075921	2.143841	0.000000	0.008740	0.000000	0.000001	-0.000002	0.000000	0.000000
51.426732	11.061364	25.678840	-0.079969	-0.145480	2.146745	0.000000	-0.008675	0.000000	0.000000	-0.000002	0.000000	0.000000
51.724055	11.116960	25.768864	-0.079758	-0.220497	2.144166	0.000000	-0.013933	0.000000	-0.000000	-0.000002	0.000000	0.000000
52.165015	11.332479	25.676614	-0.410846	0.428904	2.151611	0.000000	0.047728	0.000000	-0.000001	-0.000002	0.000000	0.000000
52.605975	11.847134	25.018095	-0.760705	1.058790	2.186339	0.000000	0.109933	0.000000	-0.000002	-0.000002	0.000000	0.000000
53.046935	12.684437	23.823269	-1.145318	1.640502	2.248748	0.000000	0.173390	0.000000	-0.000003	-0.000002	0.000000	0.000000
53.487895	13.882642	22.146499	-1.582257	2.147572	2.339547	0.000000	0.238822	0.000000	-0.000004	-0.000002	0.000000	0.000000
53.933855	15.517035	20.039009	-2.095709	2.558269	2.461275	0.000000	0.307373	0.000000	-0.000004	-0.000002	0.000000	0.000000
54.482915	17.621322	17.667483	-1.714132	1.786474	2.609862	0.000000	0.233068	0.000000	-0.000006	-0.000002	0.000000	0.000000
55.031975	19.237222	16.069051	-1.211477	1.141927	2.716454	0.000000	0.154629	0.000000	-0.000007	-0.000002	0.000000	0.000000
55.581035	20.250595	15.129858	-0.623249	0.578716	2.779161	0.000000	0.073447	0.000000	-0.000007	-0.000001	0.000000	0.000000
56.130095	20.589862	14.783010	0.009001	0.056726	2.796870	0.000000	-0.009038	0.000000	-0.000008	-0.000001	0.000000	0.000000
56.428668	20.620952	14.732154	-0.059330	0.074974	2.796354	0.000000	-0.001730	0.000000	-0.000009	-0.000001	0.000000	0.000000
56.762001	20.665913	14.689756	-0.075552	0.052220	2.795778	0.000000	-0.001730	0.000000	-0.000009	-0.000001	0.000000	0.000000
57.095334	20.721688	14.662527	-0.091773	0.029467	2.795202	0.000000	-0.001730	0.000000	-0.000009	-0.000001	0.000000	0.000000
57.429918	20.788548	14.650450	-0.108056	0.006628	2.794623	0.000000	-0.001730	0.000000	-0.000010	-0.000001	0.000000	0.000000
57.727240	20.857105	14.652543	-0.177026	0.024620	2.794109	0.000000	0.005572	0.000000	-0.000010	-0.000001	0.000000	0.000000
58.276300	20.695712	14.906812	0.469228	-0.490453	2.774529	0.000000	-0.076793	0.000000	-0.000011	-0.000001	0.000000	0.000000
58.825360	19.838737	15.742443	1.082337	-1.040460	2.710032	0.000000	-0.157796	0.000000	-0.000011	-0.000001	0.000000	0.000000
59.374420	18.346711	17.218955	1.618996	-1.664577	2.601764	0.000000	-0.236000	0.000000	-0.000011	-0.000000	0.000000	0.000000
59.923480	16.325023	19.441517	2.041297	-2.407258	2.451645	0.000000	-0.310018	0.000000	-0.000011	0.000000	0.000000	0.000000
60.369440	14.742713	21.416903	1.519365	-2.003558	2.328680	0.000000	-0.241733	0.000000	-0.000011	-0.000000	0.000000	0.000000
60.810400	13.604762	22.972193	1.071048	-1.510075	2.236535	0.000000	-0.176598	0.000000	-0.000012	-0.000000	0.000000	0.000000
61.251360	12.839201	24.060195	0.671663	-0.947885	2.172640	0.000000	-0.113475	0.000000	-0.000012	-0.000001	0.000000	0.000000
61.692320	12.411053	24.631406	0.302965	-0.342567	2.136270	0.000000	-0.051645	0.000000	-0.000012	-0.000001	0.000000	0.000000
62.134530	12.300813	24.659292	-0.021824	0.217805	2.127014	0.000000	0.004381	0.000000	-0.000013	-0.000001	0.000000	0.000000
62.431853	12.320980	24.533531	-0.046007	0.205175	2.128317	0.000000	0.004381	0.000000	-0.000013	-0.000001	0.000000	0.000000
62.765186	12.360689	24.401467	-0.073118	0.191017	2.129778	0.000000	0.004381	0.000000	-0.000014	-0.000001	0.000000	0.000000
63.098520	12.418472	24.278842	-0.100230	0.176858	2.131239	0.000000	0.004381	0.000000	-0.000014	-0.000001	0.000000	0.000000
63.433103	12.494647	24.165250	-0.127443	0.162646	2.132705	0.000000	0.004381	0.000000	-0.000015	-0.000001	0.000000	0.000000
63.730426	12.577620	24.072288	-0.120777	0.090976	2.134008	0.000000	-0.000853	0.000000	-0.000015	-0.000001	0.000000	0.000000
64.171386	12.844348	23.726961	-0.486399	0.689171	2.147174	0.000000	0.060620	0.000000	-0.000016	-0.000002	0.000000	0.000000
64.612346	13.442069	22.865937	-0.874244	1.256010	2.187573	0.000000	0.122784	0.000000	-0.000016	-0.000002	0.000000	0.000000
65.053306	14.398091	21.528394	-1.302030	1.765701	2.255666	0.000000	0.186346	0.000000	-0.000017	-0.000003	0.000000	0.000000
65.494266	15.756092	19.775188	-1.789302	2.195055	2.352229	0.000000	0.252031	0.000000	-0.000019	-0.000003	0.000000	0.000000
65.940226	17.601276	17.661287	-2.363013	2.525286	2.479933	0.000000	0.320988	0.000000	-0.000020	-0.000004	0.000000	0.000000
66.489286	19.966783	15.296561	-1.919773	1.807000	2.635809	0.000000	0.245960	0.000000	-0.000022	-0.000003	0.000000	0.000000
67.038346	21.767765	13.645717	-1.340930	1.217423	2.749229	0.000000	0.166570	0.000000	-0.000023	-0.000002	0.000000	0.000000
67.587406	22.877007	12.591168	-0.667371	0.714560	2.818182	0.000000	0.084225	0.000000	-0.000024	-0.000001	0.000000	0.000000
68.136466	23.216161	12.057801	0.053328	0.262593	2.841445	0.000000	0.000386	0.000000	-0.000025	-0.000001	0.000000	0.000000
68.435038	23.224386	11.890210	-0.020205	0.267201	2.843777	0.000000	0.007812	0.000000	-0.000025	-0.000001	0.000000	0.000000
68.768372	23.242642	11.722088	-0.034564	0.237165	2.846381	0.000000	0.007812	0.000000	-0.000025	-0.000001	0.000000	0.000000
69.101705	23.270471	11.573990	-0.048922	0.207129	2.848985	0.000000	0.007812	0.000000	-0.000025	-0.000001	0.000000	0.000000
69.436288	23.308030	11.445474	-0.063335	0.176981	2.851599	0.000000	0.007812	0.000000	-0.000026	-0.000001	0.000000	0.000000
69.733611	23.349500	11.348199	-0.137163	0.179847	2.853922	0.000000	0.015270	0.000000	-0.000026	-0.000001	0.000000	0.000000
70.282671	23.099096	11.378031	0.590522	-0.234501	2.839120	0.000000	-0.069110	0.000000	-0.000026	0.000000	0.000000	0.000000
