#ParticleID	Turn	x[m]	xp	y[m]	yp	z[m]	dE[GeV]# s	beta_x	beta_y	alpha_x	alpha_y	D_x	D_y	D_px	D_py	orbit_x	orbit_px	orbit_y	orbit_py
0.300000	11.818463	24.999774	-0.011547	-0.027467	2.618052	0.000000	0.000036	0.000000	-0.000000	0.000001	0.000000	0.000000
0.601250	11.833100	25.019956	-0.037041	-0.039527	2.618062	0.000000	0.000036	0.000000	-0.000000	0.000001	0.000000	0.000000
0.898573	11.862607	25.046999	-0.033111	-0.112851	2.618073	0.000000	-0.006384	0.000000	0.000000	0.000001	0.000000	0.000000
1.339533	12.043994	24.868695	-0.379795	0.515665	2.631550	0.000000	0.067572	0.000000	0.000001	0.000001	0.000000	0.000000
1.780493	12.537595	24.144359	-0.743831	1.120718	2.677778	0.000000	0.142298	0.000000	0.000001	0.000001	0.000000	0.000000
2.221453	13.365963	22.906948	-1.141851	1.674780	2.757283	0.000000	0.218645	0.000000	0.000001	0.000001	0.000000	0.000000
2.662413	14.566943	21.212762	-1.592038	2.152640	2.870970	0.000000	0.297482	0.000000	0.000002	0.000001	0.000000	0.000000
3.108373	16.216164	19.114039	-2.119253	2.533689	3.021995	0.000000	0.380196	0.000000	0.000002	0.000001	0.000000	0.000000
3.657433	18.331000	16.756892	-1.709684	1.784710	3.205474	0.000000	0.287158	0.000000	0.000003	0.000001	0.000000	0.000000
4.206493	19.926700	15.148000	-1.179352	1.162853	3.336393	0.000000	0.189026	0.000000	0.000003	0.000001	0.000000	0.000000
4.755553	20.890552	14.172764	-0.565715	0.623823	3.412430	0.000000	0.087542	0.000000	0.000004	0.000001	0.000000	0.000000
5.304613	21.154475	13.761721	0.087880	0.129226	3.432238	0.000000	-0.015496	0.000000	0.000004	0.000001	0.000000	0.000000
5.603185	21.139221	13.669739	0.018480	0.142894	3.430289	0.000000	-0.006528	0.000000	0.000004	0.000001	0.000000	0.000000
5.936519	21.132159	13.582770	0.002706	0.118011	3.428112	0.000000	-0.006528	0.000000	0.000004	0.000001	0.000000	0.000000
6.269852	21.135612	13.512390	-0.013067	0.093128	3.425936	0.000000	-0.006528	0.000000	0.000005	0.000001	0.000000	0.000000
6.604435	21.149654	13.458429	-0.028900	0.068152	3.423752	0.000000	-0.006528	0.000000	0.000005	0.000001	0.000000	0.000000
6.901758	21.171023	13.424501	-0.098284	0.081032	3.421810	0.000000	0.002412	0.000000	0.000005	0.000001	0.000000	0.000000
7.450818	20.918114	13.596251	0.556179	-0.395687	3.394932	0.000000	-0.100173	0.000000	0.000005	0.000000	0.000000	0.000000
7.999878	19.963946	14.303808	1.171356	-0.900590	3.312135	0.000000	-0.200981	0.000000	0.000005	0.000000	0.000000	0.000000
8.548938	18.375916	15.597569	1.703794	-1.469639	3.174886	0.000000	-0.298224	0.000000	0.000005	0.000000	0.000000	0.000000
9.097998	16.266194	17.569687	2.115885	-2.143368	2.985620	0.000000	-0.390178	0.000000	0.000005	-0.000000	0.000000	0.000000
9.543958	14.620198	19.326959	1.588144	-1.780402	2.829924	0.000000	-0.308467	0.000000	0.000005	0.000000	0.000000	0.000000
9.984918	13.422949	20.707153	1.137252	-1.337662	2.711149	0.000000	-0.230754	0.000000	0.000006	0.000000	0.000000	0.000000
10.425878	12.599024	21.668453	0.738318	-0.834059	2.626032	0.000000	-0.155669	0.000000	0.000006	0.000000	0.000000	0.000000
10.866838	12.110779	22.167120	0.373115	-0.292506	2.573601	0.000000	-0.082357	0.000000	0.000006	0.000000	0.000000	0.000000
11.309048	11.935772	22.179947	0.054123	0.207906	2.553241	0.000000	-0.016244	0.000000	0.000006	0.000001	0.000000	0.000000
11.606371	11.911016	22.060475	0.029140	0.193921	2.548411	0.000000	-0.016244	0.000000	0.000006	0.000001	0.000000	0.000000
12.086371	11.902402	21.885147	-0.011193	0.171345	2.540614	0.000000	-0.016244	0.000000	0.000007	0.000001	0.000000	0.000000
12.566371	11.932508	21.731493	-0.051527	0.148768	2.532816	0.000000	-0.016244	0.000000	0.000007	0.000001	0.000000	0.000000
13.046371	12.001333	21.599512	-0.091860	0.126192	2.525019	0.000000	-0.016244	0.000000	0.000007	0.000001	0.000000	0.000000
13.526371	12.108878	21.489205	-0.132193	0.103615	2.517221	0.000000	-0.016244	0.000000	0.000007	0.000001	0.000000	0.000000
14.007621	12.255574	21.400369	-0.172631	0.080980	2.509403	0.000000	-0.016244	0.000000	0.000008	0.000001	0.000000	0.000000
14.304943	12.365656	21.356373	-0.167292	0.014627	2.504573	0.000000	-0.022386	0.000000	0.000008	0.000001	0.000000	0.000000
14.745903	12.671780	21.109718	-0.529562	0.542602	2.510335	0.000000	0.048545	0.000000	0.000008	0.000001	0.000000	0.000000
15.186863	13.306817	20.406581	-0.916026	1.045889	2.547467	0.000000	0.120029	0.000000	0.000009	0.000001	0.000000	0.000000
15.627823	14.299781	19.278954	-1.344340	1.501589	2.616391	0.000000	0.192880	0.000000	0.000009	0.000001	0.000000	0.000000
16.068783	15.696038	17.778143	-1.834074	1.888968	2.717893	0.000000	0.267928	0.000000	0.000010	0.000002	0.000000	0.000000
16.514743	17.583034	15.950930	-2.412359	2.191146	2.854823	0.000000	0.346489	0.000000	0.000011	0.000002	0.000000	0.000000
17.063803	20.006546	13.910636	-1.975441	1.546764	3.021332	0.000000	0.259142	0.000000	0.000011	0.000001	0.000000	0.000000
17.612863	21.870344	12.513663	-1.398988	1.012554	3.138547	0.000000	0.167199	0.000000	0.000012	0.000001	0.000000	0.000000
18.161923	23.042777	11.660507	-0.723717	0.550466	3.204391	0.000000	0.072290	0.000000	0.000013	0.000001	0.000000	0.000000
18.710983	23.441030	11.290399	0.002674	0.127587	3.217694	0.000000	-0.023901	0.000000	0.000013	0.000000	0.000000	0.000000
19.009556	23.479819	11.204688	-0.071348	0.129986	3.213068	0.000000	-0.015495	0.000000	0.000013	0.000000	0.000000	0.000000
19.342889	23.532141	11.128115	-0.085616	0.099734	3.207903	0.000000	-0.015495	0.000000	0.000013	0.000000	0.000000	0.000000
19.676223	23.593974	11.071710	-0.099885	0.069482	3.202738	0.000000	-0.015495	0.000000	0.000013	0.000000	0.000000	0.000000
20.010806	23.665900	11.035238	-0.231462	0.093792	3.197573	0.000000	0.000348	0.000000	0.000013	0.000000	0.000000	0.000000
20.308129	23.807473	10.987546	-0.306896	0.095317	3.197677	0.000000	0.008702	0.000000	0.000013	0.000000	0.000000	0.000000
20.857189	23.733864	11.105142	0.440165	-0.310759	3.176230	0.000000	-0.086709	0.000000	0.000013	-0.000000	0.000000	0.000000
21.406249	22.852181	11.678124	1.156134	-0.738969	3.102742	0.000000	-0.180581	0.000000	0.000013	-0.000000	0.000000	0.000000
21.955309	21.224700	12.747302	1.790440	-1.219814	2.978518	0.000000	-0.271251	0.000000	0.000013	-0.000001	0.000000	0.000000
22.504369	18.966379	14.388832	2.298278	-1.787544	2.805761	0.000000	-0.357110	0.000000	0.000012	-0.000001	0.000000	0.000000
22.950329	17.186649	15.862582	1.706593	-1.503181	2.663801	0.000000	-0.279886	0.000000	0.000012	-0.000001	0.000000	0.000000
23.391289	15.910867	17.037565	1.197573	-1.151281	2.556708	0.000000	-0.206305	0.000000	0.000011	-0.000001	0.000000	0.000000
23.832249	15.058269	17.877827	0.743267	-0.746998	2.481513	0.000000	-0.135073	0.000000	0.000011	-0.000000	0.000000	0.000000
24.273209	14.589901	18.345138	0.322918	-0.308727	2.437359	0.000000	-0.065380	0.000000	0.000011	-0.000000	0.000000	0.000000
24.715418	14.484482	18.417988	-0.047247	0.098360	2.423740	0.000000	-0.002375	0.000000	0.000011	0.000000	0.000000	0.000000
25.012741	14.518694	18.364345	-0.067820	0.082061	2.423034	0.000000	-0.002375	0.000000	0.000011	0.000000	0.000000	0.000000
25.346075	14.571595	18.315729	-0.090884	0.063787	2.422242	0.000000	-0.002375	0.000000	0.000011	0.000000	0.000000	0.000000
25.679408	14.639873	18.279295	-0.113949	0.045514	2.421451	0.000000	-0.002375	0.000000	0.000011	0.000000	0.000000	0.000000
26.013991	14.723571	18.255346	-0.017652	-0.120924	2.420631	0.000000	-0.022013	0.000000	0.000011	0.000000	0.000000	0.000000
26.311314	14.740073	18.332166	-0.001709	-0.182400	2.414086	0.000000	-0.027932	0.000000	0.000011	-0.000000	0.000000	0.000000
26.752274	14.923192	18.294199	-0.415139	0.268173	2.416883	0.000000	0.040628	0.000000	0.000011	0.000000	0.000000	0.000000
27.193234	15.477876	17.862746	-0.847535	0.706544	2.449984	0.000000	0.109650	0.000000	0.000011	0.000001	0.000000	0.000000
27.634194	16.429468	17.057437	-1.318652	1.112768	2.513768	0.000000	0.179922	0.000000	0.000012	0.000001	0.000000	0.000000
28.075154	17.821443	15.914914	-1.850015	1.468362	2.608961	0.000000	0.252243	0.000000	0.000012	0.000001	0.000000	0.000000
28.521114	19.741582	14.469951	-2.470864	1.758060	2.738250	0.000000	0.327880	0.000000	0.000013	0.000001	0.000000	0.000000
29.070174	22.182093	12.859939	-1.947711	1.191555	2.895605	0.000000	0.244458	0.000000	0.000013	0.000001	0.000000	0.000000
29.619234	23.968710	11.822040	-1.286982	0.709922	3.005897	0.000000	0.156701	0.000000	0.000014	0.000001	0.000000	0.000000
30.168294	24.975236	11.282327	-0.535346	0.278856	3.067170	0.000000	0.066164	0.000000	0.000014	0.000000	0.000000	0.000000
30.717354	25.130574	11.202357	0.254104	-0.132348	3.078337	0.000000	-0.025547	0.000000	0.000014	-0.000000	0.000000	0.000000
31.015927	25.021716	11.271955	0.176147	-0.130018	3.073111	0.000000	-0.017504	0.000000	0.000014	-0.000000	0.000000	0.000000
31.349260	24.908863	11.368657	0.162412	-0.160090	3.067276	0.000000	-0.017504	0.000000	0.000014	-0.000000	0.000000	0.000000
31.682593	24.805166	11.485407	0.148677	-0.190162	3.061442	0.000000	-0.017504	0.000000	0.000014	-0.000000	0.000000	0.000000
32.017177	24.710289	11.622756	0.134890	-0.220346	3.055585	0.000000	-0.017504	0.000000	0.000014	-0.000000	0.000000	0.000000
32.314499	24.633720	11.761759	0.058283	-0.216441	3.050381	0.000000	-0.009535	0.000000	0.000014	-0.000000	0.000000	0.000000
32.863559	24.147680	12.238682	0.821699	-0.657302	3.020257	0.000000	-0.100033	0.000000	0.000013	-0.000001	0.000000	0.000000
33.412619	22.850383	13.222437	1.527074	-1.144981	2.940859	0.000000	-0.188756	0.000000	0.000013	-0.000001	0.000000	0.000000
33.961679	20.833464	14.783095	2.124584	-1.714215	2.813596	0.000000	-0.274131	0.000000	0.000012	-0.000001	0.000000	0.000000
34.510739	18.239387	17.031819	2.572024	-2.405548	2.640725	0.000000	-0.354644	0.000000	0.000011	-0.000002	0.000000	0.000000
34.956699	16.222417	19.043203	1.966940	-2.085854	2.498913	0.000000	-0.281700	0.000000	0.000011	-0.000002	0.000000	0.000000
35.397659	14.718420	20.706597	1.456732	-1.672001	2.390080	0.000000	-0.212392	0.000000	0.000010	-0.000001	0.000000	0.000000
35.838619	13.633448	21.969937	1.013078	-1.182073	2.311247	0.000000	-0.145503	0.000000	0.000009	-0.000001	0.000000	0.000000
36.279579	12.917933	22.775743	0.615708	-0.638362	2.261516	0.000000	-0.080271	0.000000	0.000009	-0.000001	0.000000	0.000000
36.721789	12.538492	23.087656	0.277108	-0.122274	2.240294	0.000000	-0.021447	0.000000	0.000009	-0.000001	0.000000	0.000000
37.019112	12.381303	23.164252	0.251574	-0.135344	2.233918	0.000000	-0.021447	0.000000	0.000008	-0.000001	0.000000	0.000000
37.352445	12.223129	23.259366	0.222948	-0.149998	2.226769	0.000000	-0.021447	0.000000	0.000008	-0.000001	0.000000	0.000000
37.685779	12.084039	23.364249	0.194322	-0.164651	2.219620	0.000000	-0.021447	0.000000	0.000008	-0.000001	0.000000	0.000000
38.020362	11.963619	23.479349	0.165588	-0.179360	2.212444	0.000000	-0.021447	0.000000	0.000008	-0.000001	0.000000	0.000000
38.317684	11.872745	23.589891	0.169168	-0.250276	2.206068	0.000000	-0.026857	0.000000	0.000008	-0.000001	0.000000	0.000000
38.758644	11.874937	23.549332	-0.174157	0.341904	2.208155	0.000000	0.036332	0.000000	0.000007	-0.000000	0.000000	0.000000
39.199604	12.182265	22.991409	-0.525439	0.918527	2.238170	0.000000	0.099934	0.000000	0.000007	-0.000000	0.000000	0.000000
39.640564	12.808770	21.941508	-0.900727	1.453358	2.296456	0.000000	0.164674	0.000000	0.000007	-0.000000	0.000000	0.000000
40.081524	13.783076	20.447397	-1.317166	1.922062	2.383674	0.000000	0.231289	0.000000	0.000007	0.000000	0.000000	0.000000
40.527484	15.167268	18.554488	-1.797609	2.304596	2.502293	0.000000	0.300945	0.000000	0.000007	0.000000	0.000000	0.000000
41.076544	16.933718	16.427360	-1.400572	1.592398	2.646996	0.000000	0.225373	0.000000	0.000007	0.000000	0.000000	0.000000
41.625604	18.206937	15.015812	-0.904606	0.993622	2.749045	0.000000	0.145805	0.000000	0.000007	-0.000000	0.000000	0.000000
42.174664	18.896989	14.219302	-0.344743	0.465620	2.806632	0.000000	0.063650	0.000000	0.000007	-0.000000	0.000000	0.000000
42.723724	18.955133	13.981096	0.239471	-0.029217	2.818734	0.000000	-0.019634	0.000000	0.000007	-0.000001	0.000000	0.000000
43.022297	18.846580	13.983107	0.173628	-0.014045	2.815070	0.000000	-0.012270	0.000000	0.000007	-0.000001	0.000000	0.000000
43.502297	18.692490	14.013071	0.147391	-0.048379	2.809181	0.000000	-0.012270	0.000000	0.000006	-0.000001	0.000000	0.000000
43.982297	18.563588	14.075995	0.121155	-0.082713	2.803292	0.000000	-0.012270	0.000000	0.000006	-0.000001	0.000000	0.000000
44.462297	18.459874	14.171880	0.094918	-0.117047	2.797403	0.000000	-0.012270	0.000000	0.000006	-0.000001	0.000000	0.000000
44.942297	18.381346	14.300725	0.068681	-0.151381	2.791514	0.000000	-0.012270	0.000000	0.000006	-0.000001	0.000000	0.000000
45.423547	18.328126	14.462817	-0.048431	-0.114147	2.785627	0.000000	0.001532	0.000000	0.000005	-0.000001	0.000000	0.000000
45.720870	18.361760	14.536885	-0.112665	-0.096992	2.786082	0.000000	0.008811	0.000000	0.000005	-0.000001	0.000000	0.000000
46.269930	18.176301	14.924568	0.448441	-0.613261	2.768346	0.000000	-0.073323	0.000000	0.000005	-0.000001	0.000000	0.000000
46.818990	17.388507	15.899693	0.977871	-1.173212	2.705804	0.000000	-0.154158	0.000000	0.000004	-0.000001	0.000000	0.000000
47.368050	16.054023	17.531717	1.438229	-1.816728	2.599566	0.000000	-0.232257	0.000000	0.000004	-0.000001	0.000000	0.000000
47.917110	14.267111	19.936884	1.796998	-2.589646	2.451515	0.000000	-0.306237	0.000000	0.000003	-0.000001	0.000000	0.000000
48.363070	12.876517	22.075309	1.332252	-2.185302	2.330239	0.000000	-0.237934	0.000000	0.000003	-0.000001	0.000000	0.000000
48.804030	11.881783	23.787503	0.932143	-1.682801	2.239781	0.000000	-0.172738	0.000000	0.000002	-0.000001	0.000000	0.000000
49.244990	11.219872	25.020947	0.574620	-1.103734	2.177611	0.000000	-0.109509	0.000000	0.000002	-0.000001	0.000000	0.000000
49.685950	10.860544	25.719520	0.243349	-0.474447	2.143021	0.000000	-0.047527	0.000000	0.000001	-0.000001	0.000000	0.000000
50.128160	10.787507	25.851155	-0.050466	0.112982	2.135628	0.000000	0.008677	0.000000	0.000001	-0.000001	0.000000	0.000000
50.425482	10.825732	25.787434	-0.078098	0.101334	2.138208	0.000000	0.008677	0.000000	0.000001	-0.000001	0.000000	0.000000
50.758816	10.888123	25.724231	-0.109076	0.088275	2.141101	0.000000	0.008677	0.000000	0.000000	-0.000001	0.000000	0.000000
51.092149	10.971166	25.669734	-0.140055	0.075216	2.143993	0.000000	0.008677	0.000000	0.000000	-0.000001	0.000000	0.000000
51.426732	11.075066	25.624307	-0.081301	-0.145768	2.146875	0.000000	-0.008740	0.000000	-0.000000	-0.000001	0.000000	0.000000
51.724055	11.131446	25.714510	-0.081027	-0.220678	2.144276	0.000000	-0.013999	0.000000	-0.000000	-0.000001	0.000000	0.000000
52.165015	11.348239	25.623054	-0.412477	0.427291	2.151692	0.000000	0.047665	0.000000	-0.000001	-0.000001	0.000000	0.000000
52.605975	11.864518	24.966564	-0.762771	1.055819	2.186394	0.000000	0.109872	0.000000	-0.000001	-0.000001	0.000000	0.000000
53.046935	12.703869	23.774909	-1.147915	1.636308	2.248775	0.000000	0.173330	0.000000	-0.000002	-0.000001	0.000000	0.000000
53.487895	13.904642	22.102309	-1.585503	2.142346	2.339547	0.000000	0.238762	0.000000	-0.000002	-0.000001	0.000000	0.000000
53.933855	15.542277	19.999857	-2.099759	2.552246	2.461248	0.000000	0.307313	0.000000	-0.000002	-0.000001	0.000000	0.000000
54.482915	17.650672	17.634083	-1.717519	1.781960	2.609802	0.000000	0.233009	0.000000	-0.000003	-0.000001	0.000000	0.000000
55.031975	19.269815	16.039931	-1.213961	1.138599	2.716363	0.000000	0.154573	0.000000	-0.000004	-0.000001	0.000000	0.000000
55.581035	20.285338	15.103853	-0.624656	0.576338	2.779039	0.000000	0.073394	0.000000	-0.000004	-0.000001	0.000000	0.000000
56.130095	20.625509	14.759175	0.008772	0.055128	2.796720	0.000000	-0.009086	0.000000	-0.000004	-0.000001	0.000000	0.000000
56.428668	20.656783	14.709320	-0.059626	0.073286	2.796189	0.000000	-0.001778	0.000000	-0.000005	-0.000001	0.000000	0.000000
56.762001	20.701932	14.668057	-0.075820	0.050503	2.795597	0.000000	-0.001778	0.000000	-0.000005	-0.000001	0.000000	0.000000
57.095334	20.757877	14.641983	-0.092014	0.027719	2.795004	0.000000	-0.001778	0.000000	-0.000005	-0.000001	0.000000	0.000000
57.429918	20.824888	14.631086	-0.108269	0.004851	2.794409	0.000000	-0.001778	0.000000	-0.000005	-0.000001	0.000000	0.000000
57.727240	20.893565	14.634243	-0.177307	0.022767	2.793881	0.000000	0.005522	0.000000	-0.000005	-0.000001	0.000000	0.000000
58.276300	20.731810	14.890270	0.470166	-0.491819	2.774274	0.000000	-0.076835	0.000000	-0.000006	-0.000000	0.000000	0.000000
58.825360	19.873161	15.727179	1.084429	-1.041437	2.709757	0.000000	-0.157829	0.000000	-0.000006	-0.000000	0.000000	0.000000
59.374420	18.378268	17.204583	1.622094	-1.665234	2.601473	0.000000	-0.236024	0.000000	-0.000006	-0.000000	0.000000	0.000000
59.923480	16.352724	19.427713	2.045182	-2.407641	2.451343	0.000000	-0.310032	0.000000	-0.000006	0.000000	0.000000	0.000000
60.369440	14.767330	21.403665	1.522420	-2.004441	2.328370	0.000000	-0.241755	0.000000	-0.000006	-0.000000	0.000000	0.000000
60.810400	13.626995	22.959939	1.073419	-1.511414	2.236213	0.000000	-0.176629	0.000000	-0.000006	-0.000000	0.000000	0.000000
61.251360	12.859603	24.049301	0.673459	-0.949619	2.172303	0.000000	-0.113514	0.000000	-0.000006	-0.000000	0.000000	0.000000
61.692320	12.430094	24.622188	0.304268	-0.344617	2.135913	0.000000	-0.051693	0.000000	-0.000006	-0.000000	0.000000	0.000000
62.134530	12.318898	24.651992	-0.020913	0.215554	2.126633	0.000000	0.004325	0.000000	-0.000006	-0.000001	0.000000	0.000000
62.431853	12.338513	24.527567	-0.045059	0.202932	2.127919	0.000000	0.004325	0.000000	-0.000007	-0.000001	0.000000	0.000000
62.765186	12.377576	24.396995	-0.072130	0.188783	2.129361	0.000000	0.004325	0.000000	-0.000007	-0.000001	0.000000	0.000000
63.098520	12.434686	24.275857	-0.099200	0.174633	2.130803	0.000000	0.004325	0.000000	-0.000007	-0.000001	0.000000	0.000000
63.433103	12.510158	24.163751	-0.126372	0.160430	2.132250	0.000000	0.004325	0.000000	-0.000007	-0.000001	0.000000	0.000000
63.730426	12.592484	24.072104	-0.119636	0.088772	2.133536	0.000000	-0.000908	0.000000	-0.000007	-0.000001	0.000000	0.000000
64.171386	12.858345	23.728704	-0.485566	0.687020	2.146675	0.000000	0.060553	0.000000	-0.000008	-0.000001	0.000000	0.000000
64.612346	13.455453	22.869518	-0.873681	1.254010	2.187041	0.000000	0.122704	0.000000	-0.000008	-0.000001	0.000000	0.000000
65.053306	14.411089	21.533638	-1.301712	1.763943	2.255095	0.000000	0.186252	0.000000	-0.000009	-0.000001	0.000000	0.000000
65.494266	15.768912	19.781847	-1.789214	2.193617	2.351612	0.000000	0.251921	0.000000	-0.000009	-0.000001	0.000000	0.000000
65.940226	17.614120	17.669058	-2.363153	2.524239	2.479263	0.000000	0.320861	0.000000	-0.000010	-0.000002	0.000000	0.000000
66.489286	19.979483	15.305487	-1.919369	1.805930	2.635074	0.000000	0.245856	0.000000	-0.000011	-0.000001	0.000000	0.000000
67.038346	21.779735	13.655864	-1.340012	1.216254	2.748443	0.000000	0.166490	0.000000	-0.000012	-0.000001	0.000000	0.000000
67.587406	22.887715	12.602689	-0.666002	0.713209	2.817360	0.000000	0.084172	0.000000	-0.000012	-0.000001	0.000000	0.000000
68.136466	23.225162	12.070948	0.055050	0.260965	2.840600	0.000000	0.000360	0.000000	-0.000012	-0.000000	0.000000	0.000000
68.435038	23.232367	11.904296	-0.018495	0.265656	2.842924	0.000000	0.007782	0.000000	-0.000012	-0.000000	0.000000	0.000000
68.768372	23.249482	11.737184	-0.032848	0.235679	2.845518	0.000000	0.007782	0.000000	-0.000012	-0.000000	0.000000	0.000000
69.101705	23.276164	11.590058	-0.047200	0.205701	2.848112	0.000000	0.007782	0.000000	-0.000013	-0.000000	0.000000	0.000000
69.436288	23.312569	11.462477	-0.061607	0.175612	2.850716	0.000000	0.007782	0.000000	-0.000013	-0.000000	0.000000	0.000000
69.733611	23.353010	11.366000	-0.135433	0.178573	2.853030	0.000000	0.015238	0.000000	-0.000013	-0.000000	0.000000	0.000000
70.282671	23.100658	11.397509	0.592319	-0.236299	2.838218	0.000000	-0.069114	0.000000	-0.000013	0.000000	0.000000	0.000000
