#ParticleID	Turn	x[m]	xp	y[m]	yp	z[m]	dE[GeV]# s	beta_x	beta_y	alpha_x	alpha_y	D_x	D_y	D_px	D_py	orbit_x	orbit_px	orbit_y	orbit_py
0.300000	11.819189	24.996726	-0.011639	-0.027492	2.618057	0.000000	0.000034	0.000000	0.000000	0.000001	0.000000	0.000000
0.601250	11.833881	25.016923	-0.037131	-0.039553	2.618067	0.000000	0.000034	0.000000	0.000000	0.000001	0.000000	0.000000
0.898573	11.863441	25.043983	-0.033198	-0.112871	2.618077	0.000000	-0.006386	0.000000	0.000001	0.000001	0.000000	0.000000
1.339533	12.044914	24.865732	-0.379903	0.515565	2.631554	0.000000	0.067571	0.000000	0.000001	0.000001	0.000000	0.000000
1.780493	12.538622	24.141518	-0.743965	1.120544	2.677781	0.000000	0.142297	0.000000	0.000001	0.000001	0.000000	0.000000
2.221453	13.367122	22.904290	-1.142017	1.674539	2.757285	0.000000	0.218643	0.000000	0.000002	0.000001	0.000000	0.000000
2.662413	14.568266	21.210342	-1.592245	2.152343	2.870971	0.000000	0.297480	0.000000	0.000002	0.000001	0.000000	0.000000
3.108373	16.217693	19.111904	-2.119510	2.533350	3.021996	0.000000	0.380195	0.000000	0.000002	0.000001	0.000000	0.000000
3.657433	18.332791	16.755082	-1.709902	1.784454	3.205474	0.000000	0.287157	0.000000	0.000003	0.000001	0.000000	0.000000
4.206493	19.928701	15.146434	-1.179515	1.162662	3.336392	0.000000	0.189025	0.000000	0.000003	0.000001	0.000000	0.000000
4.755553	20.892698	14.171378	-0.565813	0.623684	3.412429	0.000000	0.087540	0.000000	0.000003	0.000001	0.000000	0.000000
5.304613	21.156688	13.760464	0.087855	0.129129	3.432236	0.000000	-0.015497	0.000000	0.000004	0.000000	0.000000	0.000000
5.603185	21.141452	13.668542	0.018451	0.142792	3.430287	0.000000	-0.006529	0.000000	0.000004	0.000000	0.000000	0.000000
5.936519	21.134409	13.581642	0.002679	0.117908	3.428110	0.000000	-0.006529	0.000000	0.000004	0.000000	0.000000	0.000000
6.269852	21.137881	13.511331	-0.013093	0.093024	3.425933	0.000000	-0.006529	0.000000	0.000004	0.000000	0.000000	0.000000
6.604435	21.151939	13.457440	-0.028925	0.068046	3.423749	0.000000	-0.006529	0.000000	0.000004	0.000000	0.000000	0.000000
6.901758	21.173322	13.423576	-0.098313	0.080922	3.421807	0.000000	0.002411	0.000000	0.000004	0.000000	0.000000	0.000000
7.450818	20.920403	13.595433	0.556227	-0.395772	3.394928	0.000000	-0.100174	0.000000	0.000005	0.000000	0.000000	0.000000
7.999878	19.966141	14.303074	1.171478	-0.900657	3.312130	0.000000	-0.200982	0.000000	0.000005	0.000000	0.000000	0.000000
8.548938	18.377940	15.596902	1.703981	-1.469694	3.174881	0.000000	-0.298225	0.000000	0.000005	0.000000	0.000000	0.000000
9.097998	16.267983	17.569074	2.116124	-2.143414	2.985615	0.000000	-0.390178	0.000000	0.000005	-0.000000	0.000000	0.000000
9.543958	14.621797	19.326397	1.588330	-1.780472	2.829918	0.000000	-0.308468	0.000000	0.000005	-0.000000	0.000000	0.000000
9.984918	13.424404	20.706662	1.137395	-1.337753	2.711143	0.000000	-0.230755	0.000000	0.000005	0.000000	0.000000	0.000000
10.425878	12.600369	21.668050	0.738424	-0.834167	2.626025	0.000000	-0.155670	0.000000	0.000005	0.000000	0.000000	0.000000
10.866838	12.112045	22.166819	0.373189	-0.292627	2.573594	0.000000	-0.082358	0.000000	0.000005	0.000000	0.000000	0.000000
11.309048	11.936986	22.179755	0.054171	0.207779	2.553234	0.000000	-0.016246	0.000000	0.000005	0.000000	0.000000	0.000000
11.606371	11.912201	22.060358	0.029190	0.193795	2.548403	0.000000	-0.016246	0.000000	0.000005	0.000000	0.000000	0.000000
12.086371	11.903537	21.885151	-0.011139	0.171219	2.540605	0.000000	-0.016246	0.000000	0.000006	0.000000	0.000000	0.000000
12.566371	11.933589	21.731617	-0.051468	0.148644	2.532807	0.000000	-0.016246	0.000000	0.000006	0.000000	0.000000	0.000000
13.046371	12.002356	21.599755	-0.091798	0.126068	2.525009	0.000000	-0.016246	0.000000	0.000006	0.000000	0.000000	0.000000
13.526371	12.109840	21.489566	-0.132127	0.103492	2.517211	0.000000	-0.016246	0.000000	0.000006	0.000000	0.000000	0.000000
14.007621	12.256471	21.400848	-0.172561	0.080858	2.509392	0.000000	-0.016246	0.000000	0.000007	0.000000	0.000000	0.000000
14.304943	12.366511	21.356924	-0.167217	0.014504	2.504562	0.000000	-0.022387	0.000000	0.000007	0.000000	0.000000	0.000000
14.745903	12.672576	21.110371	-0.529504	0.542497	2.510323	0.000000	0.048543	0.000000	0.000007	0.000001	0.000000	0.000000
15.186863	13.307569	20.407317	-0.915982	1.045806	2.547454	0.000000	0.120027	0.000000	0.000007	0.000001	0.000000	0.000000
15.627823	14.300500	19.279752	-1.344309	1.501532	2.616377	0.000000	0.192878	0.000000	0.000008	0.000001	0.000000	0.000000
16.068783	15.696735	17.778979	-1.834054	1.888940	2.717878	0.000000	0.267925	0.000000	0.000008	0.000001	0.000000	0.000000
16.514743	17.583717	15.951777	-2.412349	2.191148	2.854807	0.000000	0.346486	0.000000	0.000009	0.000001	0.000000	0.000000
17.063803	20.007201	13.911491	-1.975400	1.546749	3.021314	0.000000	0.259140	0.000000	0.000009	0.000001	0.000000	0.000000
17.612863	21.870938	12.514544	-1.398919	1.012521	3.138528	0.000000	0.167197	0.000000	0.000010	0.000001	0.000000	0.000000
18.161923	23.043281	11.661435	-0.723624	0.550412	3.204371	0.000000	0.072289	0.000000	0.000010	0.000001	0.000000	0.000000
18.710983	23.441424	11.291400	0.002783	0.127509	3.217674	0.000000	-0.023902	0.000000	0.000011	0.000000	0.000000	0.000000
19.009556	23.480149	11.205733	-0.071240	0.129914	3.213047	0.000000	-0.015496	0.000000	0.000011	0.000000	0.000000	0.000000
19.342889	23.532398	11.129207	-0.085509	0.099665	3.207882	0.000000	-0.015496	0.000000	0.000011	0.000000	0.000000	0.000000
19.676223	23.594160	11.072846	-0.099777	0.069416	3.202716	0.000000	-0.015496	0.000000	0.000011	0.000000	0.000000	0.000000
20.010806	23.666013	11.036417	-0.231354	0.093736	3.197552	0.000000	0.000347	0.000000	0.000011	0.000000	0.000000	0.000000
20.308129	23.807521	10.988758	-0.306788	0.095268	3.197655	0.000000	0.008701	0.000000	0.000011	0.000000	0.000000	0.000000
20.857189	23.733795	11.106427	0.440271	-0.310843	3.176208	0.000000	-0.086709	0.000000	0.000011	-0.000000	0.000000	0.000000
21.406249	22.851998	11.679523	1.156233	-0.739094	3.102721	0.000000	-0.180581	0.000000	0.000011	-0.000000	0.000000	0.000000
21.955309	21.224417	12.748866	1.790523	-1.219990	2.978497	0.000000	-0.271250	0.000000	0.000010	-0.000001	0.000000	0.000000
22.504369	18.966016	14.390622	2.298340	-1.787782	2.805740	0.000000	-0.357108	0.000000	0.000010	-0.000001	0.000000	0.000000
22.950329	17.186230	15.864566	1.706656	-1.503378	2.663781	0.000000	-0.279885	0.000000	0.000010	-0.000001	0.000000	0.000000
23.391289	15.910391	17.039701	1.197641	-1.151427	2.556689	0.000000	-0.206304	0.000000	0.000009	-0.000001	0.000000	0.000000
23.832249	15.057730	17.880068	0.743342	-0.747087	2.481494	0.000000	-0.135073	0.000000	0.000009	-0.000000	0.000000	0.000000
24.273209	14.589291	18.347431	0.323004	-0.308755	2.437340	0.000000	-0.065380	0.000000	0.000009	-0.000000	0.000000	0.000000
24.715418	14.483790	18.420279	-0.047147	0.098388	2.423722	0.000000	-0.002376	0.000000	0.000009	0.000000	0.000000	0.000000
25.012741	14.517943	18.366618	-0.067721	0.082090	2.423015	0.000000	-0.002376	0.000000	0.000009	0.000000	0.000000	0.000000
25.346075	14.570778	18.317982	-0.090786	0.063819	2.422223	0.000000	-0.002376	0.000000	0.000009	0.000000	0.000000	0.000000
25.679408	14.638991	18.281526	-0.113851	0.045548	2.421431	0.000000	-0.002376	0.000000	0.000009	0.000000	0.000000	0.000000
26.013991	14.722624	18.257553	-0.017564	-0.120906	2.420612	0.000000	-0.022013	0.000000	0.000009	-0.000000	0.000000	0.000000
26.311314	14.739074	18.334362	-0.001623	-0.182386	2.414067	0.000000	-0.027933	0.000000	0.000009	-0.000000	0.000000	0.000000
26.752274	14.922106	18.296357	-0.415027	0.268246	2.416863	0.000000	0.040627	0.000000	0.000009	0.000000	0.000000	0.000000
27.193234	15.476679	17.864814	-0.847392	0.706673	2.449964	0.000000	0.109649	0.000000	0.000009	0.000000	0.000000	0.000000
27.634194	16.428129	17.059369	-1.318472	1.112947	2.513747	0.000000	0.179920	0.000000	0.000009	0.000001	0.000000	0.000000
28.075154	17.819926	15.916669	-1.849789	1.468583	2.608939	0.000000	0.252240	0.000000	0.000010	0.000001	0.000000	0.000000
28.521114	19.739838	14.471494	-2.470582	1.758312	2.738227	0.000000	0.327877	0.000000	0.000010	0.000001	0.000000	0.000000
29.070174	22.180061	12.861238	-1.947473	1.191749	2.895581	0.000000	0.244456	0.000000	0.000011	0.000001	0.000000	0.000000
29.619234	23.966449	11.823151	-1.286805	0.710072	3.005872	0.000000	0.156699	0.000000	0.000011	0.000000	0.000000	0.000000
30.168294	24.972821	11.283294	-0.535244	0.278971	3.067144	0.000000	0.066163	0.000000	0.000011	0.000000	0.000000	0.000000
30.717354	25.128091	11.203214	0.254125	-0.132259	3.078311	0.000000	-0.025546	0.000000	0.000011	-0.000000	0.000000	0.000000
31.015927	25.019217	11.272755	0.176172	-0.129924	3.073085	0.000000	-0.017504	0.000000	0.000011	-0.000000	0.000000	0.000000
31.349260	24.906348	11.369394	0.162435	-0.159993	3.067250	0.000000	-0.017504	0.000000	0.000011	-0.000000	0.000000	0.000000
31.682593	24.802636	11.486079	0.148699	-0.190061	3.061416	0.000000	-0.017504	0.000000	0.000011	-0.000000	0.000000	0.000000
32.017177	24.707746	11.623360	0.134911	-0.220243	3.055559	0.000000	-0.017504	0.000000	0.000011	-0.000000	0.000000	0.000000
32.314499	24.631164	11.762301	0.058307	-0.216334	3.050355	0.000000	-0.009535	0.000000	0.000011	-0.000000	0.000000	0.000000
32.863559	24.145145	12.239111	0.821638	-0.657204	3.020231	0.000000	-0.100032	0.000000	0.000011	-0.000001	0.000000	0.000000
33.412619	22.847959	13.222760	1.526932	-1.144885	2.940835	0.000000	-0.188754	0.000000	0.000010	-0.000001	0.000000	0.000000
33.961679	20.831236	14.783311	2.124372	-1.714114	2.813573	0.000000	-0.274129	0.000000	0.000010	-0.000001	0.000000	0.000000
34.510739	18.237425	17.031919	2.571756	-2.405436	2.640703	0.000000	-0.354641	0.000000	0.000009	-0.000001	0.000000	0.000000
34.956699	16.220666	19.043196	1.966732	-2.085727	2.498893	0.000000	-0.281697	0.000000	0.000008	-0.000001	0.000000	0.000000
35.397659	14.716831	20.706473	1.456572	-1.671865	2.390061	0.000000	-0.212389	0.000000	0.000008	-0.000001	0.000000	0.000000
35.838619	13.631982	21.969691	1.012959	-1.181934	2.311229	0.000000	-0.145501	0.000000	0.000007	-0.000001	0.000000	0.000000
36.279579	12.916555	22.775375	0.615625	-0.638227	2.261498	0.000000	-0.080270	0.000000	0.000007	-0.000001	0.000000	0.000000
36.721789	12.537172	23.087173	0.277055	-0.122148	2.240277	0.000000	-0.021446	0.000000	0.000007	-0.000001	0.000000	0.000000
37.019112	12.380014	23.163694	0.251520	-0.135218	2.233901	0.000000	-0.021446	0.000000	0.000007	-0.000001	0.000000	0.000000
37.352445	12.221878	23.258723	0.222891	-0.149871	2.226752	0.000000	-0.021446	0.000000	0.000006	-0.000001	0.000000	0.000000
37.685779	12.082826	23.363522	0.194263	-0.164525	2.219604	0.000000	-0.021446	0.000000	0.000006	-0.000001	0.000000	0.000000
38.020362	11.962447	23.478538	0.165527	-0.179233	2.212428	0.000000	-0.021446	0.000000	0.000006	-0.000001	0.000000	0.000000
38.317684	11.871609	23.589004	0.169102	-0.250148	2.206052	0.000000	-0.026856	0.000000	0.000006	-0.000001	0.000000	0.000000
38.758644	11.873848	23.548344	-0.174198	0.342006	2.208139	0.000000	0.036332	0.000000	0.000006	-0.000000	0.000000	0.000000
39.199604	12.181201	22.990343	-0.525456	0.918600	2.238155	0.000000	0.099934	0.000000	0.000006	-0.000000	0.000000	0.000000
39.640564	12.807711	21.940392	-0.900721	1.453397	2.296440	0.000000	0.164673	0.000000	0.000005	-0.000000	0.000000	0.000000
40.081524	13.782002	20.446262	-1.317137	1.922067	2.383659	0.000000	0.231289	0.000000	0.000005	0.000000	0.000000	0.000000
40.527484	15.166158	18.553365	-1.797556	2.304565	2.502277	0.000000	0.300944	0.000000	0.000005	0.000000	0.000000	0.000000
41.076544	16.932573	16.426256	-1.400561	1.592395	2.646979	0.000000	0.225373	0.000000	0.000006	-0.000000	0.000000	0.000000
41.625604	18.205802	15.014695	-0.904637	0.993648	2.749029	0.000000	0.145805	0.000000	0.000005	-0.000000	0.000000	0.000000
42.174664	18.895912	14.218141	-0.344814	0.465676	2.806615	0.000000	0.063650	0.000000	0.000005	-0.000000	0.000000	0.000000
42.723724	18.954155	13.979856	0.239364	-0.029127	2.818718	0.000000	-0.019633	0.000000	0.000005	-0.000001	0.000000	0.000000
43.022297	18.845664	13.981815	0.173523	-0.013960	2.815055	0.000000	-0.012269	0.000000	0.000005	-0.000001	0.000000	0.000000
43.502297	18.691676	14.011699	0.147286	-0.048297	2.809166	0.000000	-0.012269	0.000000	0.000005	-0.000001	0.000000	0.000000
43.982297	18.562875	14.074547	0.121049	-0.082634	2.803277	0.000000	-0.012269	0.000000	0.000004	-0.000001	0.000000	0.000000
44.462297	18.459262	14.170357	0.094812	-0.116971	2.797389	0.000000	-0.012269	0.000000	0.000004	-0.000001	0.000000	0.000000
44.942297	18.380837	14.299132	0.068575	-0.151308	2.791500	0.000000	-0.012269	0.000000	0.000004	-0.000001	0.000000	0.000000
45.423547	18.327720	14.461155	-0.048536	-0.114085	2.785613	0.000000	0.001533	0.000000	0.000004	-0.000000	0.000000	0.000000
45.720870	18.361416	14.535188	-0.112771	-0.096937	2.786069	0.000000	0.008812	0.000000	0.000004	-0.000000	0.000000	0.000000
46.269930	18.176078	14.922781	0.448327	-0.613153	2.768334	0.000000	-0.073322	0.000000	0.000003	-0.000001	0.000000	0.000000
46.818990	17.388410	15.897755	0.977757	-1.173043	2.705792	0.000000	-0.154156	0.000000	0.000003	-0.000001	0.000000	0.000000
47.368050	16.054048	17.529554	1.438123	-1.816486	2.599555	0.000000	-0.232255	0.000000	0.000002	-0.000001	0.000000	0.000000
47.917110	14.267246	19.934406	1.796907	-2.589313	2.451506	0.000000	-0.306235	0.000000	0.000002	-0.000001	0.000000	0.000000
48.363070	12.876731	22.072559	1.332167	-2.185024	2.330231	0.000000	-0.237932	0.000000	0.000002	-0.000001	0.000000	0.000000
48.804030	11.882071	23.784536	0.932059	-1.682590	2.239773	0.000000	-0.172735	0.000000	0.000001	-0.000001	0.000000	0.000000
49.244990	11.220235	25.017828	0.574534	-1.103600	2.177604	0.000000	-0.109507	0.000000	0.000001	-0.000001	0.000000	0.000000
49.685950	10.860984	25.716319	0.243258	-0.474396	2.143015	0.000000	-0.047525	0.000000	0.000001	-0.000001	0.000000	0.000000
50.128160	10.788032	25.847947	-0.050565	0.112956	2.135623	0.000000	0.008678	0.000000	0.000000	-0.000001	0.000000	0.000000
50.425482	10.826316	25.784242	-0.078196	0.101306	2.138204	0.000000	0.008678	0.000000	0.000000	-0.000001	0.000000	0.000000
50.758816	10.888772	25.721058	-0.109174	0.088246	2.141096	0.000000	0.008678	0.000000	-0.000000	-0.000001	0.000000	0.000000
51.092149	10.971881	25.666581	-0.140151	0.075185	2.143989	0.000000	0.008678	0.000000	-0.000000	-0.000001	0.000000	0.000000
51.426732	11.075844	25.621175	-0.081390	-0.145776	2.146872	0.000000	-0.008738	0.000000	-0.000001	-0.000001	0.000000	0.000000
51.724055	11.132277	25.711383	-0.081113	-0.220679	2.144274	0.000000	-0.013997	0.000000	-0.000001	-0.000001	0.000000	0.000000
52.165015	11.349154	25.619965	-0.412583	0.427207	2.151690	0.000000	0.047667	0.000000	-0.000001	-0.000001	0.000000	0.000000
52.605975	11.865537	24.963584	-0.762904	1.055656	2.186392	0.000000	0.109874	0.000000	-0.000001	-0.000001	0.000000	0.000000
53.046935	12.705019	23.772104	-1.148079	1.636074	2.248774	0.000000	0.173332	0.000000	-0.000002	-0.000001	0.000000	0.000000
53.487895	13.905953	22.099738	-1.585707	2.142052	2.339547	0.000000	0.238764	0.000000	-0.000002	-0.000001	0.000000	0.000000
53.933855	15.543792	19.997571	-2.100012	2.551904	2.461249	0.000000	0.307314	0.000000	-0.000003	-0.000001	0.000000	0.000000
54.482915	17.652445	17.632123	-1.717733	1.781705	2.609804	0.000000	0.233011	0.000000	-0.000003	-0.000001	0.000000	0.000000
55.031975	19.271795	16.038211	-1.214122	1.138413	2.716365	0.000000	0.154574	0.000000	-0.000003	-0.000001	0.000000	0.000000
55.581035	20.287459	15.102306	-0.624751	0.576208	2.779042	0.000000	0.073396	0.000000	-0.000004	-0.000001	0.000000	0.000000
56.130095	20.627695	14.757745	0.008748	0.055044	2.796723	0.000000	-0.009085	0.000000	-0.000004	-0.000000	0.000000	0.000000
56.428668	20.658987	14.707943	-0.059654	0.073196	2.796193	0.000000	-0.001777	0.000000	-0.000004	-0.000000	0.000000	0.000000
56.762001	20.704153	14.666740	-0.075846	0.050411	2.795601	0.000000	-0.001777	0.000000	-0.000004	-0.000000	0.000000	0.000000
57.095334	20.760115	14.640728	-0.092039	0.027626	2.795008	0.000000	-0.001777	0.000000	-0.000005	-0.000000	0.000000	0.000000
57.429918	20.827142	14.629893	-0.108292	0.004756	2.794414	0.000000	-0.001777	0.000000	-0.000005	-0.000000	0.000000	0.000000
57.727240	20.895831	14.633108	-0.177334	0.022668	2.793886	0.000000	0.005523	0.000000	-0.000005	-0.000000	0.000000	0.000000
58.276300	20.734064	14.889227	0.470215	-0.491888	2.774280	0.000000	-0.076834	0.000000	-0.000005	-0.000000	0.000000	0.000000
58.825360	19.875320	15.726197	1.084551	-1.041480	2.709763	0.000000	-0.157828	0.000000	-0.000005	-0.000000	0.000000	0.000000
59.374420	18.380258	17.203636	1.622280	-1.665254	2.601480	0.000000	-0.236023	0.000000	-0.000005	0.000000	0.000000	0.000000
59.923480	16.354479	19.426777	2.045419	-2.407641	2.451350	0.000000	-0.310032	0.000000	-0.000005	0.000000	0.000000	0.000000
60.369440	14.768899	21.402743	1.522605	-2.004472	2.328377	0.000000	-0.241755	0.000000	-0.000005	0.000000	0.000000	0.000000
60.810400	13.628420	22.959057	1.073561	-1.511475	2.236220	0.000000	-0.176628	0.000000	-0.000005	-0.000000	0.000000	0.000000
61.251360	12.860919	24.048486	0.673565	-0.949707	2.172311	0.000000	-0.113513	0.000000	-0.000005	-0.000000	0.000000	0.000000
61.692320	12.431331	24.621460	0.304342	-0.344728	2.135921	0.000000	-0.051692	0.000000	-0.000005	-0.000000	0.000000	0.000000
62.134530	12.320082	24.651372	-0.020864	0.215426	2.126642	0.000000	0.004326	0.000000	-0.000006	-0.000000	0.000000	0.000000
62.431853	12.339667	24.527022	-0.045008	0.202805	2.127929	0.000000	0.004326	0.000000	-0.000006	-0.000000	0.000000	0.000000
62.765186	12.378695	24.396535	-0.072076	0.188656	2.129371	0.000000	0.004326	0.000000	-0.000006	-0.000000	0.000000	0.000000
63.098520	12.435769	24.275481	-0.099144	0.174506	2.130813	0.000000	0.004326	0.000000	-0.000006	-0.000000	0.000000	0.000000
63.433103	12.511203	24.163459	-0.126313	0.160304	2.132261	0.000000	0.004326	0.000000	-0.000006	-0.000000	0.000000	0.000000
63.730426	12.593493	24.071887	-0.119572	0.088648	2.133547	0.000000	-0.000906	0.000000	-0.000006	-0.000000	0.000000	0.000000
64.171386	12.859308	23.728598	-0.485524	0.686894	2.146686	0.000000	0.060555	0.000000	-0.000007	-0.000001	0.000000	0.000000
64.612346	13.456388	22.869523	-0.873659	1.253886	2.187054	0.000000	0.122706	0.000000	-0.000007	-0.000001	0.000000	0.000000
65.053306	14.412012	21.533749	-1.301708	1.763828	2.255109	0.000000	0.186254	0.000000	-0.000007	-0.000001	0.000000	0.000000
65.494266	15.769840	19.782052	-1.789229	2.193517	2.351627	0.000000	0.251924	0.000000	-0.000008	-0.000001	0.000000	0.000000
65.940226	17.615069	17.669345	-2.363186	2.524157	2.479279	0.000000	0.320864	0.000000	-0.000008	-0.000001	0.000000	0.000000
66.489286	19.980448	15.305860	-1.919365	1.805853	2.635091	0.000000	0.245859	0.000000	-0.000009	-0.000001	0.000000	0.000000
67.038346	21.780675	13.656322	-1.339970	1.216176	2.748462	0.000000	0.166493	0.000000	-0.000010	-0.000001	0.000000	0.000000
67.587406	22.888590	12.603237	-0.665926	0.713124	2.817379	0.000000	0.084173	0.000000	-0.000010	-0.000001	0.000000	0.000000
68.136466	23.225936	12.071595	0.055155	0.260867	2.840620	0.000000	0.000361	0.000000	-0.000010	-0.000000	0.000000	0.000000
68.435038	23.233080	11.905000	-0.018390	0.265562	2.842944	0.000000	0.007783	0.000000	-0.000010	-0.000000	0.000000	0.000000
68.768372	23.250124	11.737949	-0.032743	0.235588	2.845538	0.000000	0.007783	0.000000	-0.000010	-0.000000	0.000000	0.000000
69.101705	23.276737	11.590882	-0.047095	0.205614	2.848133	0.000000	0.007783	0.000000	-0.000010	-0.000000	0.000000	0.000000
69.436288	23.313071	11.463358	-0.061501	0.175528	2.850737	0.000000	0.007783	0.000000	-0.000010	-0.000000	0.000000	0.000000
69.733611	23.353448	11.366931	-0.135326	0.178494	2.853051	0.000000	0.015238	0.000000	-0.000010	-0.000000	0.000000	0.000000
70.282671	23.100973	11.398541	0.592437	-0.236406	2.838239	0.000000	-0.069114	0.000000	-0.000011	0.000000	0.000000	0.000000
