#ParticleID	Turn	x[m]	xp	y[m]	yp	z[m]	dE[GeV]# s	beta_x	beta_y	alpha_x	alpha_y	D_x	D_y	D_px	D_py	orbit_x	orbit_px	orbit_y	orbit_py
0.300000	11.807440	25.044513	-0.010364	-0.026990	2.618147	0.000000	-0.000001	0.000000	-0.000001	0.000002	0.000000	0.000000
0.601250	11.821372	25.064401	-0.035881	-0.039028	2.618146	0.000000	-0.000001	0.000000	-0.000000	0.000002	0.000000	0.000000
0.898573	11.850195	25.091140	-0.032004	-0.112438	2.618145	0.000000	-0.006422	0.000000	0.000000	0.000002	0.000000	0.000000
1.339533	12.030473	24.911959	-0.378377	0.517235	2.631606	0.000000	0.067536	0.000000	0.000001	0.000002	0.000000	0.000000
1.780493	12.522664	24.185753	-0.742037	1.123375	2.677818	0.000000	0.142263	0.000000	0.000002	0.000002	0.000000	0.000000
2.221453	13.349254	22.945562	-1.139598	1.678402	2.757308	0.000000	0.218611	0.000000	0.000003	0.000002	0.000000	0.000000
2.662413	14.548009	21.247815	-1.589225	2.157062	2.870979	0.000000	0.297448	0.000000	0.000003	0.000002	0.000000	0.000000
3.108373	16.194421	19.144862	-2.115745	2.538712	3.021990	0.000000	0.380163	0.000000	0.000004	0.000002	0.000000	0.000000
3.657433	18.305695	16.782897	-1.706743	1.788515	3.205449	0.000000	0.287125	0.000000	0.000005	0.000002	0.000000	0.000000
4.206493	19.898575	15.170369	-1.177186	1.165709	3.336350	0.000000	0.188994	0.000000	0.000006	0.000002	0.000000	0.000000
4.755553	20.860549	14.192421	-0.564479	0.625935	3.412371	0.000000	0.087512	0.000000	0.000007	0.000001	0.000000	0.000000
5.304613	21.123666	13.779397	0.088101	0.130744	3.432162	0.000000	-0.015524	0.000000	0.000008	0.000001	0.000000	0.000000
5.603185	21.108238	13.686475	0.018763	0.144474	3.430204	0.000000	-0.006557	0.000000	0.000008	0.000001	0.000000	0.000000
5.936519	21.100995	13.598447	0.002965	0.119611	3.428018	0.000000	-0.006557	0.000000	0.000008	0.000001	0.000000	0.000000
6.269852	21.104284	13.526994	-0.012832	0.094748	3.425832	0.000000	-0.006557	0.000000	0.000009	0.000001	0.000000	0.000000
6.604435	21.118176	13.471942	-0.028688	0.069791	3.423638	0.000000	-0.006557	0.000000	0.000009	0.000001	0.000000	0.000000
6.901758	21.139424	13.437035	-0.098008	0.082720	3.421688	0.000000	0.002383	0.000000	0.000009	0.000001	0.000000	0.000000
7.450818	20.886795	13.607119	0.555398	-0.394321	3.394795	0.000000	-0.100198	0.000000	0.000010	0.000001	0.000000	0.000000
7.999878	19.934043	14.313307	1.169573	-0.899448	3.311985	0.000000	-0.201001	0.000000	0.000010	0.000001	0.000000	0.000000
8.548938	18.348466	15.605900	1.701135	-1.468640	3.174726	0.000000	-0.298239	0.000000	0.000011	0.000000	0.000000	0.000000
9.097998	16.242062	17.576966	2.112537	-2.142441	2.985453	0.000000	-0.390188	0.000000	0.000011	-0.000000	0.000000	0.000000
9.543958	14.598721	19.333262	1.585517	-1.779150	2.829752	0.000000	-0.308482	0.000000	0.000011	0.000000	0.000000	0.000000
9.984918	13.403519	20.712229	1.135219	-1.336144	2.710970	0.000000	-0.230773	0.000000	0.000011	0.000000	0.000000	0.000000
10.425878	12.581159	21.672099	0.736787	-0.832344	2.625843	0.000000	-0.155693	0.000000	0.000011	0.000001	0.000000	0.000000
10.866838	12.094069	22.169197	0.372016	-0.290674	2.573401	0.000000	-0.082386	0.000000	0.000011	0.000001	0.000000	0.000000
11.309048	11.919862	22.180381	0.053365	0.209775	2.553026	0.000000	-0.016277	0.000000	0.000012	0.000001	0.000000	0.000000
11.606371	11.895566	22.059801	0.028350	0.195780	2.548186	0.000000	-0.016277	0.000000	0.000012	0.000001	0.000000	0.000000
12.086371	11.887734	21.882697	-0.012033	0.173187	2.540373	0.000000	-0.016277	0.000000	0.000013	0.000001	0.000000	0.000000
12.566371	11.918671	21.727282	-0.052417	0.150594	2.532559	0.000000	-0.016277	0.000000	0.000014	0.000001	0.000000	0.000000
13.046371	11.988375	21.593556	-0.092801	0.128001	2.524746	0.000000	-0.016277	0.000000	0.000014	0.000001	0.000000	0.000000
13.526371	12.096848	21.481520	-0.133184	0.105408	2.516932	0.000000	-0.016277	0.000000	0.000015	0.000001	0.000000	0.000000
14.007621	12.244523	21.390967	-0.173673	0.082756	2.509098	0.000000	-0.016277	0.000000	0.000015	0.000001	0.000000	0.000000
14.304943	12.355234	21.345917	-0.168393	0.016423	2.504258	0.000000	-0.022417	0.000000	0.000016	0.000001	0.000000	0.000000
14.745903	12.662237	21.097815	-0.530462	0.544077	2.510004	0.000000	0.048505	0.000000	0.000016	0.000002	0.000000	0.000000
15.186863	13.297995	20.393544	-0.916766	1.046976	2.547115	0.000000	0.119980	0.000000	0.000017	0.000002	0.000000	0.000000
15.627823	14.291554	19.265148	-1.344954	1.502239	2.616015	0.000000	0.192822	0.000000	0.000018	0.000003	0.000000	0.000000
16.068783	15.688307	17.763967	-1.834589	1.889151	2.717489	0.000000	0.267859	0.000000	0.000019	0.000003	0.000000	0.000000
16.514743	17.575728	15.936804	-2.412800	2.190851	2.854386	0.000000	0.346410	0.000000	0.000021	0.000004	0.000000	0.000000
17.063803	19.999933	13.896660	-1.976253	1.546785	3.020854	0.000000	0.259078	0.000000	0.000023	0.000003	0.000000	0.000000
17.612863	21.864802	12.499490	-1.400113	1.012893	3.138038	0.000000	0.167151	0.000000	0.000024	0.000002	0.000000	0.000000
18.161923	23.038608	11.645777	-0.725076	0.551147	3.203859	0.000000	0.072259	0.000000	0.000025	0.000001	0.000000	0.000000
18.710983	23.438440	11.274714	0.001176	0.128658	3.217150	0.000000	-0.023915	0.000000	0.000025	0.000000	0.000000	0.000000
19.009556	23.478116	11.188403	-0.072836	0.130967	3.212518	0.000000	-0.015511	0.000000	0.000025	0.000001	0.000000	0.000000
19.342889	23.531431	11.111193	-0.087109	0.100663	3.207348	0.000000	-0.015511	0.000000	0.000026	0.000001	0.000000	0.000000
19.676223	23.594261	11.054186	-0.101381	0.070359	3.202177	0.000000	-0.015511	0.000000	0.000026	0.000001	0.000000	0.000000
20.010806	23.667188	11.017145	-0.232968	0.094528	3.197007	0.000000	0.000329	0.000000	0.000026	0.000001	0.000000	0.000000
20.308129	23.809660	10.969030	-0.308409	0.095953	3.197104	0.000000	0.008680	0.000000	0.000026	0.000001	0.000000	0.000000
20.857189	23.737666	11.085640	0.438756	-0.309588	3.175651	0.000000	-0.086712	0.000000	0.000026	-0.000000	0.000000	0.000000
21.406249	22.857425	11.657007	1.154930	-0.737181	3.102167	0.000000	-0.180566	0.000000	0.000026	-0.000001	0.000000	0.000000
21.955309	21.231115	12.723826	1.789525	-1.217281	2.977957	0.000000	-0.271217	0.000000	0.000025	-0.000002	0.000000	0.000000
22.504369	18.973609	14.362087	2.297717	-1.784085	2.805223	0.000000	-0.357058	0.000000	0.000024	-0.000003	0.000000	0.000000
22.950329	17.194415	15.833021	1.705946	-1.500354	2.663284	0.000000	-0.279848	0.000000	0.000023	-0.000002	0.000000	0.000000
23.391289	15.919251	17.005836	1.196812	-1.149210	2.556205	0.000000	-0.206280	0.000000	0.000022	-0.000001	0.000000	0.000000
23.832249	15.067386	17.844642	0.742357	-0.745778	2.481019	0.000000	-0.135061	0.000000	0.000022	-0.000001	0.000000	0.000000
24.273209	14.599900	18.311275	0.321819	-0.308414	2.436867	0.000000	-0.065381	0.000000	0.000022	-0.000000	0.000000	0.000000
24.715418	14.495557	18.384257	-0.048564	0.097839	2.423246	0.000000	-0.002387	0.000000	0.000022	0.000000	0.000000	0.000000
25.012741	14.530548	18.330932	-0.069123	0.081511	2.422536	0.000000	-0.002387	0.000000	0.000022	0.000000	0.000000	0.000000
25.346075	14.584313	18.282693	-0.092173	0.063206	2.421741	0.000000	-0.002387	0.000000	0.000022	0.000000	0.000000	0.000000
25.679408	14.653445	18.246657	-0.115223	0.044901	2.420945	0.000000	-0.002387	0.000000	0.000022	0.000000	0.000000	0.000000
26.013991	14.737991	18.223128	-0.018795	-0.121307	2.420122	0.000000	-0.022020	0.000000	0.000022	0.000000	0.000000	0.000000
26.311314	14.755167	18.300185	-0.002799	-0.182731	2.413575	0.000000	-0.027938	0.000000	0.000022	-0.000000	0.000000	0.000000
26.752274	14.939414	18.262892	-0.416616	0.266982	2.416366	0.000000	0.040609	0.000000	0.000022	0.000001	0.000000	0.000000
27.193234	15.495595	17.832850	-0.849466	0.704547	2.449456	0.000000	0.109618	0.000000	0.000022	0.000001	0.000000	0.000000
27.634194	16.449123	17.029626	-1.321126	1.110056	2.513223	0.000000	0.179876	0.000000	0.000023	0.000002	0.000000	0.000000
28.075154	17.843560	15.889766	-1.853145	1.465058	2.608391	0.000000	0.252182	0.000000	0.000024	0.000002	0.000000	0.000000
28.521114	19.766838	14.447960	-2.474799	1.754313	2.737650	0.000000	0.327804	0.000000	0.000025	0.000003	0.000000	0.000000
29.070174	22.211331	12.841573	-1.950984	1.188659	2.894968	0.000000	0.244403	0.000000	0.000026	0.000002	0.000000	0.000000
29.619234	24.001071	11.806483	-1.289362	0.707671	3.005235	0.000000	0.156667	0.000000	0.000027	0.000001	0.000000	0.000000
30.168294	25.009640	11.268963	-0.536664	0.277089	3.066495	0.000000	0.066151	0.000000	0.000028	0.000000	0.000000	0.000000
30.717354	25.165797	11.190726	0.253940	-0.133757	3.077661	0.000000	-0.025537	0.000000	0.000028	-0.000001	0.000000	0.000000
31.015927	25.057081	11.261195	0.175917	-0.131496	3.072437	0.000000	-0.017498	0.000000	0.000028	-0.000000	0.000000	0.000000
31.349260	24.944374	11.358896	0.162203	-0.161608	3.066605	0.000000	-0.017498	0.000000	0.000027	-0.000000	0.000000	0.000000
31.682593	24.840811	11.476672	0.148488	-0.191720	3.060772	0.000000	-0.017498	0.000000	0.000027	-0.000000	0.000000	0.000000
32.017177	24.746053	11.615078	0.134722	-0.221945	3.054918	0.000000	-0.017498	0.000000	0.000027	-0.000000	0.000000	0.000000
32.314499	24.669579	11.755042	0.058046	-0.218097	3.049715	0.000000	-0.009531	0.000000	0.000027	-0.000000	0.000000	0.000000
32.863559	24.183143	12.233718	0.822650	-0.658860	3.019600	0.000000	-0.100008	0.000000	0.000027	-0.000001	0.000000	0.000000
33.412619	22.884176	13.219181	1.529146	-1.146552	2.940222	0.000000	-0.188710	0.000000	0.000026	-0.000002	0.000000	0.000000
33.961679	20.864429	14.781623	2.127630	-1.715911	2.812991	0.000000	-0.274065	0.000000	0.000024	-0.000003	0.000000	0.000000
34.510739	18.266568	17.032332	2.575829	-2.407490	2.640162	0.000000	-0.354559	0.000000	0.000022	-0.000004	0.000000	0.000000
34.956699	16.246582	19.045535	1.969920	-2.087974	2.498386	0.000000	-0.281629	0.000000	0.000021	-0.000003	0.000000	0.000000
35.397659	14.740267	20.710842	1.459028	-1.674202	2.389582	0.000000	-0.212334	0.000000	0.000020	-0.000003	0.000000	0.000000
35.838619	13.653531	21.976122	1.014796	-1.184254	2.310772	0.000000	-0.145458	0.000000	0.000019	-0.000002	0.000000	0.000000
36.279579	12.936726	22.783805	0.616927	-0.640424	2.261058	0.000000	-0.080238	0.000000	0.000018	-0.000002	0.000000	0.000000
36.721789	12.556406	23.097454	0.277925	-0.124141	2.239849	0.000000	-0.021424	0.000000	0.000017	-0.000001	0.000000	0.000000
37.019112	12.398723	23.175160	0.252417	-0.137212	2.233479	0.000000	-0.021424	0.000000	0.000017	-0.000001	0.000000	0.000000
37.352445	12.239978	23.271519	0.223820	-0.151866	2.226338	0.000000	-0.021424	0.000000	0.000016	-0.000001	0.000000	0.000000
37.685779	12.100297	23.377648	0.195222	-0.166520	2.219198	0.000000	-0.021424	0.000000	0.000016	-0.000001	0.000000	0.000000
38.020362	11.979265	23.493999	0.166517	-0.181229	2.212030	0.000000	-0.021424	0.000000	0.000016	-0.000001	0.000000	0.000000
38.317684	11.887830	23.605652	0.170158	-0.252180	2.205660	0.000000	-0.026832	0.000000	0.000015	-0.000001	0.000000	0.000000
38.758644	11.889299	23.566583	-0.173501	0.340443	2.207756	0.000000	0.036346	0.000000	0.000015	-0.000001	0.000000	0.000000
39.199604	12.196183	23.009727	-0.525086	0.917577	2.237776	0.000000	0.099937	0.000000	0.000014	-0.000001	0.000000	0.000000
39.640564	12.822504	21.960421	-0.900661	1.452961	2.296061	0.000000	0.164667	0.000000	0.000014	-0.000000	0.000000	0.000000
40.081524	13.796877	20.466408	-1.317384	1.922237	2.383275	0.000000	0.231273	0.000000	0.000014	0.000000	0.000000	0.000000
40.527484	15.181396	18.573088	-1.798123	2.305339	2.501883	0.000000	0.300918	0.000000	0.000015	0.000001	0.000000	0.000000
41.076544	16.948113	16.445419	-1.400542	1.592647	2.646575	0.000000	0.225360	0.000000	0.000015	0.000000	0.000000	0.000000
41.625604	18.220998	15.033858	-0.904033	0.993395	2.748621	0.000000	0.145805	0.000000	0.000015	-0.000000	0.000000	0.000000
42.174664	18.910140	14.237864	-0.343668	0.464901	2.806212	0.000000	0.063664	0.000000	0.000014	-0.000001	0.000000	0.000000
42.723724	18.966862	14.000740	0.240973	-0.030479	2.818325	0.000000	-0.019607	0.000000	0.000014	-0.000001	0.000000	0.000000
43.022297	18.857428	14.003466	0.175103	-0.015228	2.814670	0.000000	-0.012244	0.000000	0.000013	-0.000001	0.000000	0.000000
43.502297	18.701921	14.034541	0.148868	-0.049513	2.808793	0.000000	-0.012244	0.000000	0.000013	-0.000001	0.000000	0.000000
43.982297	18.571601	14.098531	0.122634	-0.083798	2.802917	0.000000	-0.012244	0.000000	0.000012	-0.000001	0.000000	0.000000
44.462297	18.466465	14.195434	0.096399	-0.118083	2.797040	0.000000	-0.012244	0.000000	0.000012	-0.000001	0.000000	0.000000
44.942297	18.386515	14.325250	0.070164	-0.152368	2.791164	0.000000	-0.012244	0.000000	0.000011	-0.000001	0.000000	0.000000
45.423547	18.331867	14.488268	-0.046965	-0.114959	2.785289	0.000000	0.001556	0.000000	0.000010	-0.000001	0.000000	0.000000
45.720870	18.364627	14.562810	-0.111199	-0.097705	2.785752	0.000000	0.008834	0.000000	0.000010	-0.000001	0.000000	0.000000
46.269930	18.177518	14.951713	0.449961	-0.614783	2.768032	0.000000	-0.073290	0.000000	0.000009	-0.000001	0.000000	0.000000
46.818990	17.388073	15.929000	0.979339	-1.175650	2.705511	0.000000	-0.154114	0.000000	0.000009	-0.000002	0.000000	0.000000
47.368050	16.052054	17.564279	1.439540	-1.820256	2.599300	0.000000	-0.232205	0.000000	0.000007	-0.000002	0.000000	0.000000
47.917110	14.263832	19.974029	1.798060	-2.594515	2.451281	0.000000	-0.306177	0.000000	0.000006	-0.000002	0.000000	0.000000
48.363070	12.872312	22.116443	1.333273	-2.189339	2.330031	0.000000	-0.237879	0.000000	0.000005	-0.000002	0.000000	0.000000
48.804030	11.876678	23.831763	0.933171	-1.685825	2.239596	0.000000	-0.172688	0.000000	0.000004	-0.000002	0.000000	0.000000
49.244990	11.213839	25.067375	0.575702	-1.105608	2.177447	0.000000	-0.109464	0.000000	0.000004	-0.000002	0.000000	0.000000
49.685950	10.853514	25.767061	0.244536	-0.475086	2.142876	0.000000	-0.047486	0.000000	0.000003	-0.000002	0.000000	0.000000
50.128160	10.779362	25.898701	-0.049141	0.113492	2.135501	0.000000	0.008715	0.000000	0.000002	-0.000002	0.000000	0.000000
50.425482	10.816804	25.834670	-0.076790	0.101864	2.138093	0.000000	0.008715	0.000000	0.000002	-0.000002	0.000000	0.000000
50.758816	10.878330	25.771106	-0.107788	0.088828	2.140998	0.000000	0.008715	0.000000	0.000001	-0.000002	0.000000	0.000000
51.092149	10.960522	25.716233	-0.138786	0.075791	2.143904	0.000000	0.008715	0.000000	0.000000	-0.000002	0.000000	0.000000
51.426732	11.063579	25.670415	-0.080146	-0.145545	2.146798	0.000000	-0.008702	0.000000	-0.000000	-0.000002	0.000000	0.000000
51.724055	11.119278	25.760479	-0.079924	-0.220546	2.144212	0.000000	-0.013960	0.000000	-0.000001	-0.000002	0.000000	0.000000
52.165015	11.334968	25.668370	-0.411069	0.428634	2.151645	0.000000	0.047703	0.000000	-0.000001	-0.000002	0.000000	0.000000
52.605975	11.849848	25.010181	-0.760994	1.058312	2.186363	0.000000	0.109908	0.000000	-0.000002	-0.000002	0.000000	0.000000
53.046935	12.687440	23.815860	-1.145687	1.639838	2.248760	0.000000	0.173366	0.000000	-0.000003	-0.000002	0.000000	0.000000
53.487895	13.886013	22.139748	-1.582724	2.146752	2.339549	0.000000	0.238798	0.000000	-0.000004	-0.000002	0.000000	0.000000
53.933855	15.520875	20.033046	-2.096295	2.557329	2.461266	0.000000	0.307349	0.000000	-0.000005	-0.000002	0.000000	0.000000
54.482915	17.625752	17.662420	-1.714614	1.785767	2.609840	0.000000	0.233044	0.000000	-0.000006	-0.000002	0.000000	0.000000
55.031975	19.242108	16.064661	-1.211821	1.141401	2.716419	0.000000	0.154606	0.000000	-0.000007	-0.000002	0.000000	0.000000
55.581035	20.255771	15.125964	-0.623431	0.578335	2.779114	0.000000	0.073425	0.000000	-0.000008	-0.000001	0.000000	0.000000
56.130095	20.595141	14.779468	0.008995	0.056462	2.796812	0.000000	-0.009057	0.000000	-0.000008	-0.000001	0.000000	0.000000
56.428668	20.626242	14.728777	-0.059346	0.074696	2.796290	0.000000	-0.001749	0.000000	-0.000009	-0.000001	0.000000	0.000000
56.762001	20.671212	14.686565	-0.075564	0.051938	2.795707	0.000000	-0.001749	0.000000	-0.000009	-0.000001	0.000000	0.000000
57.095334	20.726994	14.659526	-0.091781	0.029181	2.795124	0.000000	-0.001749	0.000000	-0.000010	-0.000001	0.000000	0.000000
57.429918	20.793858	14.647642	-0.108060	0.006338	2.794539	0.000000	-0.001749	0.000000	-0.000010	-0.000001	0.000000	0.000000
57.727240	20.862416	14.649909	-0.177040	0.024319	2.794020	0.000000	0.005552	0.000000	-0.000010	-0.000001	0.000000	0.000000
58.276300	20.700941	14.904469	0.469391	-0.490685	2.774429	0.000000	-0.076810	0.000000	-0.000011	-0.000001	0.000000	0.000000
58.825360	19.843695	15.740325	1.082666	-1.040640	2.709924	0.000000	-0.157810	0.000000	-0.000011	-0.000001	0.000000	0.000000
59.374420	18.351227	17.217011	1.619467	-1.664717	2.601650	0.000000	-0.236010	0.000000	-0.000011	-0.000000	0.000000	0.000000
59.923480	16.328959	19.439710	2.041877	-2.407369	2.451526	0.000000	-0.310024	0.000000	-0.000011	0.000000	0.000000	0.000000
60.369440	14.746188	21.415227	1.519824	-2.003739	2.328558	0.000000	-0.241742	0.000000	-0.000011	-0.000000	0.000000	0.000000
60.810400	13.607876	22.970705	1.071409	-1.510318	2.236407	0.000000	-0.176611	0.000000	-0.000012	-0.000000	0.000000	0.000000
61.251360	12.842034	24.058945	0.671942	-0.948179	2.172506	0.000000	-0.113491	0.000000	-0.000012	-0.000001	0.000000	0.000000
61.692320	12.413671	24.630432	0.303175	-0.342898	2.136128	0.000000	-0.051664	0.000000	-0.000012	-0.000001	0.000000	0.000000
62.134530	12.303272	24.658622	-0.021668	0.217453	2.126863	0.000000	0.004358	0.000000	-0.000013	-0.000001	0.000000	0.000000
62.431853	12.323345	24.533070	-0.045846	0.204825	2.128159	0.000000	0.004358	0.000000	-0.000013	-0.000001	0.000000	0.000000
62.765186	12.362944	24.401239	-0.072951	0.190668	2.129612	0.000000	0.004358	0.000000	-0.000013	-0.000001	0.000000	0.000000
63.098520	12.420614	24.278846	-0.100057	0.176511	2.131065	0.000000	0.004358	0.000000	-0.000014	-0.000001	0.000000	0.000000
63.433103	12.496672	24.165485	-0.127265	0.162301	2.132524	0.000000	0.004358	0.000000	-0.000014	-0.000001	0.000000	0.000000
63.730426	12.579538	24.072728	-0.120589	0.090631	2.133820	0.000000	-0.000875	0.000000	-0.000015	-0.000001	0.000000	0.000000
64.171386	12.846118	23.727697	-0.486250	0.688847	2.146975	0.000000	0.060593	0.000000	-0.000015	-0.000002	0.000000	0.000000
64.612346	13.443722	22.866944	-0.874126	1.255721	2.187361	0.000000	0.122751	0.000000	-0.000016	-0.000002	0.000000	0.000000
65.053306	14.399652	21.529635	-1.301938	1.765461	2.255438	0.000000	0.186308	0.000000	-0.000017	-0.000002	0.000000	0.000000
65.494266	15.757582	19.776615	-1.789233	2.194874	2.351983	0.000000	0.251986	0.000000	-0.000018	-0.000003	0.000000	0.000000
65.940226	17.602713	17.662845	-2.362963	2.525173	2.479666	0.000000	0.320937	0.000000	-0.000020	-0.000003	0.000000	0.000000
66.489286	19.968128	15.298251	-1.919655	1.806871	2.635515	0.000000	0.245918	0.000000	-0.000021	-0.000003	0.000000	0.000000
67.038346	21.768945	13.647562	-1.340752	1.217268	2.748915	0.000000	0.166538	0.000000	-0.000023	-0.000002	0.000000	0.000000
67.587406	22.877965	12.593202	-0.667146	0.714368	2.817853	0.000000	0.084203	0.000000	-0.000024	-0.000001	0.000000	0.000000
68.136466	23.216853	12.060071	0.053585	0.262351	2.841107	0.000000	0.000375	0.000000	-0.000024	-0.000001	0.000000	0.000000
68.435038	23.224926	11.892619	-0.019950	0.266973	2.843436	0.000000	0.007800	0.000000	-0.000024	-0.000001	0.000000	0.000000
68.768372	23.243012	11.724646	-0.034308	0.236947	2.846036	0.000000	0.007800	0.000000	-0.000025	-0.000001	0.000000	0.000000
69.101705	23.270670	11.576690	-0.048666	0.206921	2.848636	0.000000	0.007800	0.000000	-0.000025	-0.000001	0.000000	0.000000
69.436288	23.308058	11.448310	-0.063078	0.176782	2.851246	0.000000	0.007800	0.000000	-0.000025	-0.000001	0.000000	0.000000
69.733611	23.349374	11.351150	-0.136905	0.179664	2.853566	0.000000	0.015257	0.000000	-0.000025	-0.000001	0.000000	0.000000
70.282671	23.098692	11.381230	0.590768	-0.234770	2.838759	0.000000	-0.069111	0.000000	-0.000025	0.000000	0.000000	0.000000
