#ParticleID	Turn	x[m]	xp	y[m]	yp	z[m]	dE[GeV]# s	beta_x	beta_y	alpha_x	alpha_y	D_x	D_y	D_px	D_py	orbit_x	orbit_px	orbit_y	orbit_py
0.300000	11.815559	25.011859	-0.011198	-0.027359	2.618045	0.000000	0.000038	0.000000	-0.000001	0.000001	0.000000	0.000000
0.601250	11.829987	25.031974	-0.036697	-0.039412	2.618056	0.000000	0.000038	0.000000	-0.000001	0.000001	0.000000	0.000000
0.898573	11.859291	25.058947	-0.032781	-0.112760	2.618067	0.000000	-0.006382	0.000000	-0.000001	0.000001	0.000000	0.000000
1.339533	12.040352	24.880424	-0.379381	0.516070	2.631546	0.000000	0.067574	0.000000	-0.000000	0.000001	0.000000	0.000000
1.780493	12.533545	24.155599	-0.743314	1.121418	2.677774	0.000000	0.142300	0.000000	0.000000	0.000001	0.000000	0.000000
2.221453	13.361403	22.917451	-1.141207	1.675743	2.757280	0.000000	0.218647	0.000000	0.000001	0.000001	0.000000	0.000000
2.662413	14.561749	21.222315	-1.591239	2.153823	2.870967	0.000000	0.297484	0.000000	0.000002	0.000001	0.000000	0.000000
3.108373	16.210174	19.122458	-2.118260	2.535038	3.021994	0.000000	0.380198	0.000000	0.000002	0.000001	0.000000	0.000000
3.657433	18.323997	16.764018	-1.708844	1.785729	3.205473	0.000000	0.287160	0.000000	0.000003	0.000001	0.000000	0.000000
4.206493	19.918887	15.154154	-1.178725	1.163614	3.336393	0.000000	0.189028	0.000000	0.000003	0.000001	0.000000	0.000000
4.755553	20.882189	14.178199	-0.565346	0.624380	3.412431	0.000000	0.087544	0.000000	0.000004	0.000001	0.000000	0.000000
5.304613	21.145860	13.766637	0.087967	0.129620	3.432240	0.000000	-0.015494	0.000000	0.000005	0.000001	0.000000	0.000000
5.603185	21.130543	13.674410	0.018584	0.143305	3.430291	0.000000	-0.006526	0.000000	0.000005	0.000001	0.000000	0.000000
5.936519	21.123414	13.587165	0.002803	0.118428	3.428115	0.000000	-0.006526	0.000000	0.000005	0.000001	0.000000	0.000000
6.269852	21.126805	13.516505	-0.012977	0.093551	3.425940	0.000000	-0.006526	0.000000	0.000005	0.000001	0.000000	0.000000
6.604435	21.140788	13.462259	-0.028817	0.068581	3.423756	0.000000	-0.006526	0.000000	0.000006	0.000001	0.000000	0.000000
6.901758	21.162109	13.428075	-0.098182	0.081475	3.421815	0.000000	0.002414	0.000000	0.000006	0.000001	0.000000	0.000000
7.450818	20.909253	13.599393	0.555981	-0.395337	3.394938	0.000000	-0.100171	0.000000	0.000006	0.000001	0.000000	0.000000
7.999878	19.955461	14.306605	1.170873	-0.900308	3.312140	0.000000	-0.200980	0.000000	0.000007	0.000000	0.000000	0.000000
8.548938	18.368102	15.600084	1.703061	-1.469405	3.174892	0.000000	-0.298223	0.000000	0.000007	0.000000	0.000000	0.000000
9.097998	16.259300	17.571963	2.114952	-2.143165	2.985627	0.000000	-0.390177	0.000000	0.000007	0.000000	0.000000	0.000000
9.543958	14.614042	19.329011	1.587415	-1.780105	2.829932	0.000000	-0.308466	0.000000	0.000007	0.000000	0.000000	0.000000
9.984918	13.417360	20.708906	1.136692	-1.337284	2.711157	0.000000	-0.230753	0.000000	0.000007	0.000000	0.000000	0.000000
10.425878	12.593863	21.669844	0.737901	-0.833618	2.626040	0.000000	-0.155668	0.000000	0.000007	0.000001	0.000000	0.000000
10.866838	12.105930	22.168103	0.372822	-0.292023	2.573611	0.000000	-0.082355	0.000000	0.000008	0.000001	0.000000	0.000000
11.309048	11.931133	22.180492	0.053928	0.208409	2.553251	0.000000	-0.016242	0.000000	0.000008	0.000001	0.000000	0.000000
11.606371	11.906495	22.060721	0.028936	0.194422	2.548422	0.000000	-0.016242	0.000000	0.000008	0.000001	0.000000	0.000000
12.086371	11.898084	21.884914	-0.011412	0.171842	2.540625	0.000000	-0.016242	0.000000	0.000009	0.000001	0.000000	0.000000
12.566371	11.928406	21.730784	-0.051760	0.149261	2.532828	0.000000	-0.016242	0.000000	0.000009	0.000001	0.000000	0.000000
13.046371	11.997463	21.598332	-0.092108	0.126681	2.525032	0.000000	-0.016242	0.000000	0.000010	0.000001	0.000000	0.000000
13.526371	12.105253	21.487558	-0.132456	0.104100	2.517235	0.000000	-0.016242	0.000000	0.000010	0.000001	0.000000	0.000000
14.007621	12.252210	21.398257	-0.172909	0.081461	2.509418	0.000000	-0.016242	0.000000	0.000011	0.000001	0.000000	0.000000
14.304943	12.362460	21.353975	-0.167588	0.015113	2.504589	0.000000	-0.022383	0.000000	0.000011	0.000001	0.000000	0.000000
14.745903	12.668815	21.106924	-0.529794	0.543013	2.510352	0.000000	0.048548	0.000000	0.000011	0.000001	0.000000	0.000000
15.186863	13.304034	20.403465	-0.916206	1.046206	2.547485	0.000000	0.120032	0.000000	0.000012	0.000002	0.000000	0.000000
15.627823	14.297137	19.275605	-1.344476	1.501798	2.616410	0.000000	0.192884	0.000000	0.000013	0.000002	0.000000	0.000000
16.068783	15.693496	17.774661	-1.834171	1.889059	2.717913	0.000000	0.267932	0.000000	0.000014	0.000002	0.000000	0.000000
16.514743	17.580564	15.947422	-2.412422	2.191114	2.854845	0.000000	0.346494	0.000000	0.000015	0.000003	0.000000	0.000000
17.063803	20.004211	13.907122	-1.975620	1.546805	3.021356	0.000000	0.259146	0.000000	0.000016	0.000002	0.000000	0.000000
17.612863	21.868263	12.510062	-1.399270	1.012672	3.138573	0.000000	0.167202	0.000000	0.000017	0.000002	0.000000	0.000000
18.161923	23.041054	11.656730	-0.724082	0.550670	3.204418	0.000000	0.072292	0.000000	0.000018	0.000001	0.000000	0.000000
18.710983	23.439743	11.286346	0.002251	0.127890	3.217722	0.000000	-0.023900	0.000000	0.000018	0.000000	0.000000	0.000000
19.009556	23.478782	11.200465	-0.071766	0.130265	3.213096	0.000000	-0.015494	0.000000	0.000018	0.000000	0.000000	0.000000
19.342889	23.531382	11.123710	-0.086036	0.099999	3.207931	0.000000	-0.015494	0.000000	0.000018	0.000000	0.000000	0.000000
19.676223	23.593496	11.067132	-0.100306	0.069734	3.202767	0.000000	-0.015494	0.000000	0.000019	0.000000	0.000000	0.000000
20.010806	23.665703	11.030496	-0.231883	0.094006	3.197602	0.000000	0.000349	0.000000	0.000019	0.000001	0.000000	0.000000
20.308129	23.807528	10.982681	-0.307317	0.095505	3.197706	0.000000	0.008703	0.000000	0.000019	0.000001	0.000000	0.000000
20.857189	23.734378	11.099995	0.439755	-0.310430	3.176259	0.000000	-0.086709	0.000000	0.000019	-0.000000	0.000000	0.000000
21.406249	22.853126	11.672527	1.155764	-0.738475	3.102772	0.000000	-0.180583	0.000000	0.000019	-0.000001	0.000000	0.000000
21.955309	21.226018	12.741058	1.790136	-1.219121	2.978547	0.000000	-0.271253	0.000000	0.000018	-0.000001	0.000000	0.000000
22.504369	18.967984	14.381697	2.298061	-1.786602	2.805788	0.000000	-0.357112	0.000000	0.000017	-0.000002	0.000000	0.000000
22.950329	17.188451	15.854677	1.706365	-1.502406	2.663828	0.000000	-0.279888	0.000000	0.000017	-0.000001	0.000000	0.000000
23.391289	15.912880	17.029063	1.197323	-1.150707	2.556734	0.000000	-0.206306	0.000000	0.000016	-0.000001	0.000000	0.000000
23.832249	15.060515	17.868919	0.742985	-0.746651	2.481538	0.000000	-0.135074	0.000000	0.000016	-0.000001	0.000000	0.000000
24.273209	14.592414	18.336030	0.322591	-0.308623	2.437384	0.000000	-0.065381	0.000000	0.000016	-0.000000	0.000000	0.000000
24.715418	14.487311	18.408899	-0.047630	0.098240	2.423766	0.000000	-0.002374	0.000000	0.000016	0.000000	0.000000	0.000000
25.012741	14.521750	18.355330	-0.068199	0.081933	2.423060	0.000000	-0.002374	0.000000	0.000016	0.000000	0.000000	0.000000
25.346075	14.574903	18.306802	-0.091260	0.063651	2.422268	0.000000	-0.002374	0.000000	0.000016	0.000000	0.000000	0.000000
25.679408	14.643430	18.270462	-0.114321	0.045369	2.421477	0.000000	-0.002374	0.000000	0.000016	0.000000	0.000000	0.000000
26.013991	14.727376	18.246612	-0.017990	-0.121007	2.420658	0.000000	-0.022012	0.000000	0.000016	0.000000	0.000000	0.000000
26.311314	14.744078	18.323484	-0.002034	-0.182468	2.414113	0.000000	-0.027932	0.000000	0.000016	0.000000	0.000000	0.000000
26.752274	14.927528	18.285680	-0.415567	0.267871	2.416910	0.000000	0.040629	0.000000	0.000016	0.000000	0.000000	0.000000
27.193234	15.482643	17.854592	-0.848086	0.706023	2.450012	0.000000	0.109652	0.000000	0.000016	0.000001	0.000000	0.000000
27.634194	16.434784	17.049832	-1.319352	1.112050	2.513797	0.000000	0.179925	0.000000	0.000017	0.000001	0.000000	0.000000
28.075154	17.827454	15.908016	-1.850895	1.467481	2.608991	0.000000	0.252246	0.000000	0.000018	0.000002	0.000000	0.000000
28.521114	19.748473	14.463898	-2.471967	1.757054	2.738281	0.000000	0.327884	0.000000	0.000019	0.000002	0.000000	0.000000
29.070174	22.190104	12.854857	-1.948636	1.190781	2.895638	0.000000	0.244462	0.000000	0.000020	0.000002	0.000000	0.000000
29.619234	23.977608	11.817706	-1.287663	0.709325	3.005931	0.000000	0.156703	0.000000	0.000020	0.000001	0.000000	0.000000
30.168294	24.984726	11.278572	-0.535736	0.278393	3.067205	0.000000	0.066165	0.000000	0.000021	0.000000	0.000000	0.000000
30.717354	25.140319	11.199053	0.254033	-0.132711	3.078373	0.000000	-0.025547	0.000000	0.000021	-0.000000	0.000000	0.000000
31.015927	25.031515	11.268876	0.176059	-0.130400	3.073146	0.000000	-0.017505	0.000000	0.000021	-0.000000	0.000000	0.000000
31.349260	24.918718	11.365837	0.162330	-0.160483	3.067312	0.000000	-0.017505	0.000000	0.000020	-0.000000	0.000000	0.000000
31.682593	24.815074	11.482854	0.148601	-0.190566	3.061477	0.000000	-0.017505	0.000000	0.000020	-0.000000	0.000000	0.000000
32.017177	24.720247	11.620477	0.134820	-0.220762	3.055620	0.000000	-0.017505	0.000000	0.000020	-0.000000	0.000000	0.000000
32.314499	24.643718	11.759731	0.058195	-0.216874	3.050416	0.000000	-0.009536	0.000000	0.000020	-0.000000	0.000000	0.000000
32.863559	24.157591	12.237108	0.821943	-0.657702	3.020291	0.000000	-0.100035	0.000000	0.000020	-0.000001	0.000000	0.000000
33.412619	22.859850	13.221297	1.527633	-1.145376	2.940892	0.000000	-0.188759	0.000000	0.000019	-0.000002	0.000000	0.000000
33.961679	20.842161	14.782399	2.125418	-1.714633	2.813627	0.000000	-0.274135	0.000000	0.000018	-0.000002	0.000000	0.000000
34.510739	18.247043	17.031608	2.573074	-2.406019	2.640754	0.000000	-0.354649	0.000000	0.000017	-0.000003	0.000000	0.000000
34.956699	16.229241	19.043439	1.967761	-2.086380	2.498941	0.000000	-0.281704	0.000000	0.000016	-0.000002	0.000000	0.000000
35.397659	14.724607	20.707313	1.457361	-1.672559	2.390106	0.000000	-0.212395	0.000000	0.000015	-0.000002	0.000000	0.000000
35.838619	13.639153	21.971149	1.013544	-1.182636	2.311272	0.000000	-0.145506	0.000000	0.000014	-0.000002	0.000000	0.000000
36.279579	12.923290	22.777445	0.616034	-0.638905	2.261540	0.000000	-0.080273	0.000000	0.000013	-0.000001	0.000000	0.000000
36.721789	12.543617	23.089820	0.277319	-0.122775	2.240317	0.000000	-0.021449	0.000000	0.000013	-0.000001	0.000000	0.000000
37.019112	12.386300	23.166714	0.251793	-0.135845	2.233940	0.000000	-0.021449	0.000000	0.000013	-0.000001	0.000000	0.000000
37.352445	12.227978	23.262162	0.223175	-0.150499	2.226791	0.000000	-0.021449	0.000000	0.000012	-0.000001	0.000000	0.000000
37.685779	12.088733	23.367380	0.194558	-0.165153	2.219642	0.000000	-0.021449	0.000000	0.000012	-0.000001	0.000000	0.000000
38.020362	11.968153	23.482817	0.165833	-0.179862	2.212466	0.000000	-0.021449	0.000000	0.000012	-0.000001	0.000000	0.000000
38.317684	11.877130	23.593657	0.169430	-0.250786	2.206089	0.000000	-0.026858	0.000000	0.000012	-0.000001	0.000000	0.000000
38.758644	11.879135	23.553503	-0.173992	0.341501	2.208176	0.000000	0.036331	0.000000	0.000011	-0.000001	0.000000	0.000000
39.199604	12.186357	22.995881	-0.525364	0.918249	2.238191	0.000000	0.099933	0.000000	0.000011	-0.000000	0.000000	0.000000
39.640564	12.812834	21.946165	-0.900738	1.453218	2.296476	0.000000	0.164674	0.000000	0.000011	-0.000000	0.000000	0.000000
40.081524	13.787188	20.452114	-1.317264	1.922066	2.383695	0.000000	0.231290	0.000000	0.000011	0.000000	0.000000	0.000000
40.527484	15.171509	18.559137	-1.797799	2.304745	2.502314	0.000000	0.300946	0.000000	0.000011	0.000001	0.000000	0.000000
41.076544	16.938080	16.431911	-1.400602	1.592427	2.647017	0.000000	0.225374	0.000000	0.000012	0.000000	0.000000	0.000000
41.625604	18.211241	15.020395	-0.904473	0.993534	2.749067	0.000000	0.145805	0.000000	0.000012	-0.000000	0.000000	0.000000
42.174664	18.901062	14.224049	-0.344457	0.465408	2.806653	0.000000	0.063649	0.000000	0.000011	-0.000001	0.000000	0.000000
42.723724	18.958817	13.986150	0.239890	-0.029568	2.818755	0.000000	-0.019635	0.000000	0.000011	-0.000001	0.000000	0.000000
43.022297	18.850018	13.988361	0.174039	-0.014376	2.815091	0.000000	-0.012271	0.000000	0.000011	-0.000001	0.000000	0.000000
43.502297	18.695533	14.018636	0.147804	-0.048698	2.809201	0.000000	-0.012271	0.000000	0.000010	-0.000001	0.000000	0.000000
43.982297	18.566234	14.081860	0.121568	-0.083019	2.803312	0.000000	-0.012271	0.000000	0.000010	-0.000001	0.000000	0.000000
44.462297	18.462122	14.178033	0.095333	-0.117340	2.797422	0.000000	-0.012271	0.000000	0.000009	-0.000001	0.000000	0.000000
44.942297	18.383195	14.307153	0.069097	-0.151662	2.791532	0.000000	-0.012271	0.000000	0.000009	-0.000001	0.000000	0.000000
45.423547	18.329575	14.469509	-0.048021	-0.114381	2.785644	0.000000	0.001530	0.000000	0.000009	-0.000001	0.000000	0.000000
45.720870	18.362964	14.543714	-0.112255	-0.097201	2.786099	0.000000	0.008809	0.000000	0.000008	-0.000001	0.000000	0.000000
46.269930	18.177036	14.931743	0.448879	-0.613685	2.768362	0.000000	-0.073326	0.000000	0.000008	-0.000001	0.000000	0.000000
46.818990	17.388758	15.907463	0.978307	-1.173879	2.705819	0.000000	-0.154160	0.000000	0.000007	-0.000001	0.000000	0.000000
47.368050	16.053810	17.540374	1.438633	-1.817687	2.599579	0.000000	-0.232261	0.000000	0.000006	-0.000002	0.000000	0.000000
47.917110	14.266486	19.946784	1.797340	-2.590964	2.451527	0.000000	-0.306241	0.000000	0.000005	-0.000002	0.000000	0.000000
48.363070	12.875598	22.086292	1.332574	-2.186400	2.330250	0.000000	-0.237937	0.000000	0.000005	-0.000002	0.000000	0.000000
48.804030	11.880583	23.799339	0.932459	-1.683630	2.239790	0.000000	-0.172741	0.000000	0.000004	-0.000001	0.000000	0.000000
49.244990	11.218390	25.033381	0.574945	-1.104256	2.177619	0.000000	-0.109511	0.000000	0.000003	-0.000001	0.000000	0.000000
49.685950	10.858765	25.732271	0.243699	-0.474639	2.143028	0.000000	-0.047529	0.000000	0.000003	-0.000001	0.000000	0.000000
50.128160	10.785402	25.863925	-0.050081	0.113099	2.135634	0.000000	0.008674	0.000000	0.000002	-0.000001	0.000000	0.000000
50.425482	10.823400	25.800133	-0.077717	0.101457	2.138214	0.000000	0.008674	0.000000	0.000002	-0.000001	0.000000	0.000000
50.758816	10.885539	25.736846	-0.108701	0.088404	2.141106	0.000000	0.008674	0.000000	0.000001	-0.000001	0.000000	0.000000
51.092149	10.968334	25.682261	-0.139684	0.075351	2.143997	0.000000	0.008674	0.000000	0.000001	-0.000001	0.000000	0.000000
51.426732	11.071987	25.636742	-0.080961	-0.145729	2.146878	0.000000	-0.008743	0.000000	0.000001	-0.000001	0.000000	0.000000
51.724055	11.128167	25.726920	-0.080701	-0.220663	2.144279	0.000000	-0.014001	0.000000	0.000000	-0.000001	0.000000	0.000000
52.165015	11.344636	25.635306	-0.412068	0.427634	2.151695	0.000000	0.047663	0.000000	-0.000000	-0.000001	0.000000	0.000000
52.605975	11.860511	24.978374	-0.762260	1.056473	2.186395	0.000000	0.109870	0.000000	-0.000001	-0.000001	0.000000	0.000000
53.046935	12.699358	23.786015	-1.147279	1.637244	2.248775	0.000000	0.173328	0.000000	-0.000001	-0.000001	0.000000	0.000000
53.487895	13.899504	22.112480	-1.584713	2.143522	2.339547	0.000000	0.238760	0.000000	-0.000002	-0.000001	0.000000	0.000000
53.933855	15.536352	20.008892	-2.098777	2.553608	2.461247	0.000000	0.307311	0.000000	-0.000003	-0.000001	0.000000	0.000000
54.482915	17.643746	17.641819	-1.716689	1.782977	2.609800	0.000000	0.233007	0.000000	-0.000003	-0.000001	0.000000	0.000000
55.031975	19.262089	16.046706	-1.213342	1.139343	2.716359	0.000000	0.154570	0.000000	-0.000004	-0.000001	0.000000	0.000000
55.581035	20.277068	15.109935	-0.624292	0.576863	2.779035	0.000000	0.073392	0.000000	-0.000005	-0.000001	0.000000	0.000000
56.130095	20.616991	14.764784	0.008856	0.055471	2.796715	0.000000	-0.009088	0.000000	-0.000005	-0.000001	0.000000	0.000000
56.428668	20.648204	14.714713	-0.059526	0.073649	2.796183	0.000000	-0.001780	0.000000	-0.000005	-0.000001	0.000000	0.000000
56.762001	20.693288	14.673205	-0.075726	0.050874	2.795590	0.000000	-0.001780	0.000000	-0.000006	-0.000001	0.000000	0.000000
57.095334	20.749172	14.646882	-0.091927	0.028098	2.794997	0.000000	-0.001780	0.000000	-0.000006	-0.000001	0.000000	0.000000
57.429918	20.816128	14.635729	-0.108189	0.005236	2.794402	0.000000	-0.001780	0.000000	-0.000006	-0.000001	0.000000	0.000000
57.727240	20.884758	14.638655	-0.177210	0.023171	2.793873	0.000000	0.005520	0.000000	-0.000007	-0.000001	0.000000	0.000000
58.276300	20.723059	14.894306	0.469968	-0.491534	2.774266	0.000000	-0.076837	0.000000	-0.000007	-0.000001	0.000000	0.000000
58.825360	19.864784	15.730958	1.083950	-1.041251	2.709748	0.000000	-0.157831	0.000000	-0.000007	-0.000000	0.000000	0.000000
59.374420	18.370558	17.208205	1.621367	-1.665133	2.601464	0.000000	-0.236025	0.000000	-0.000008	-0.000000	0.000000	0.000000
59.923480	16.345925	19.431268	2.044259	-2.407619	2.451333	0.000000	-0.310033	0.000000	-0.000008	0.000000	0.000000	0.000000
60.369440	14.761263	21.407145	1.521698	-2.004296	2.328360	0.000000	-0.241756	0.000000	-0.000008	-0.000000	0.000000	0.000000
60.810400	13.621489	22.963240	1.072863	-1.511154	2.236202	0.000000	-0.176630	0.000000	-0.000008	-0.000000	0.000000	0.000000
61.251360	12.854524	24.052327	0.673044	-0.949256	2.172292	0.000000	-0.113516	0.000000	-0.000008	-0.000001	0.000000	0.000000
61.692320	12.425326	24.624853	0.303975	-0.344168	2.135901	0.000000	-0.051694	0.000000	-0.000008	-0.000001	0.000000	0.000000
62.134530	12.314339	24.654230	-0.021108	0.216062	2.126621	0.000000	0.004323	0.000000	-0.000009	-0.000001	0.000000	0.000000
62.431853	12.334072	24.529503	-0.045263	0.203439	2.127907	0.000000	0.004323	0.000000	-0.000009	-0.000001	0.000000	0.000000
62.765186	12.373274	24.398594	-0.072344	0.189288	2.129348	0.000000	0.004323	0.000000	-0.000009	-0.000001	0.000000	0.000000
63.098520	12.430530	24.277120	-0.099424	0.175136	2.130789	0.000000	0.004323	0.000000	-0.000010	-0.000001	0.000000	0.000000
63.433103	12.506157	24.164677	-0.126607	0.160931	2.132236	0.000000	0.004323	0.000000	-0.000010	-0.000001	0.000000	0.000000
63.730426	12.588625	24.072733	-0.119888	0.089269	2.133521	0.000000	-0.000910	0.000000	-0.000010	-0.000001	0.000000	0.000000
64.171386	12.854671	23.728891	-0.485737	0.687521	2.146659	0.000000	0.060551	0.000000	-0.000011	-0.000001	0.000000	0.000000
64.612346	13.451897	22.869271	-0.873778	1.254491	2.187024	0.000000	0.122701	0.000000	-0.000011	-0.000002	0.000000	0.000000
65.053306	14.407588	21.532983	-1.301740	1.764383	2.255077	0.000000	0.186248	0.000000	-0.000012	-0.000002	0.000000	0.000000
65.494266	15.765406	19.780828	-1.789174	2.193997	2.351593	0.000000	0.251917	0.000000	-0.000013	-0.000002	0.000000	0.000000
65.940226	17.610546	17.667735	-2.363042	2.524539	2.479242	0.000000	0.320857	0.000000	-0.000014	-0.000002	0.000000	0.000000
66.489286	19.975866	15.303842	-1.919402	1.806220	2.635051	0.000000	0.245852	0.000000	-0.000015	-0.000002	0.000000	0.000000
67.038346	21.776232	13.653898	-1.340185	1.216553	2.748418	0.000000	0.166487	0.000000	-0.000016	-0.000001	0.000000	0.000000
67.587406	22.884475	12.600381	-0.666305	0.713539	2.817333	0.000000	0.084169	0.000000	-0.000017	-0.000001	0.000000	0.000000
68.136466	23.222315	12.068251	0.054640	0.261348	2.840573	0.000000	0.000358	0.000000	-0.000017	-0.000000	0.000000	0.000000
68.435038	23.229763	11.901376	-0.018902	0.266022	2.842897	0.000000	0.007781	0.000000	-0.000017	-0.000000	0.000000	0.000000
68.768372	23.247149	11.734025	-0.033256	0.236032	2.845491	0.000000	0.007781	0.000000	-0.000017	-0.000000	0.000000	0.000000
69.101705	23.274105	11.586667	-0.047611	0.206042	2.848085	0.000000	0.007781	0.000000	-0.000018	-0.000000	0.000000	0.000000
69.436288	23.310785	11.458862	-0.062019	0.175940	2.850688	0.000000	0.007781	0.000000	-0.000018	-0.000000	0.000000	0.000000
69.733611	23.351471	11.362194	-0.135845	0.178881	2.853002	0.000000	0.015237	0.000000	-0.000018	-0.000001	0.000000	0.000000
70.282671	23.099597	11.393305	0.591867	-0.235878	2.838190	0.000000	-0.069113	0.000000	-0.000018	0.000000	0.000000	0.000000
