#ParticleID	Turn	x[m]	xp	y[m]	yp	z[m]	dE[GeV]# s	beta_x	beta_y	alpha_x	alpha_y	D_x	D_y	D_px	D_py	orbit_x	orbit_px	orbit_y	orbit_py
0.300000	11.811105	25.030052	-0.010714	-0.027167	2.618075	0.000000	0.000026	0.000000	-0.000001	0.000001	0.000000	0.000000
0.601250	11.825245	25.050048	-0.036222	-0.039211	2.618082	0.000000	0.000026	0.000000	-0.000000	0.000001	0.000000	0.000000
0.898573	11.854269	25.076899	-0.032328	-0.112594	2.618090	0.000000	-0.006394	0.000000	0.000000	0.000001	0.000000	0.000000
1.339533	12.034876	24.898021	-0.378802	0.516706	2.631563	0.000000	0.067563	0.000000	0.000001	0.000001	0.000000	0.000000
1.780493	12.527494	24.172436	-0.742583	1.122497	2.677786	0.000000	0.142289	0.000000	0.000001	0.000002	0.000000	0.000000
2.221453	13.354627	22.933159	-1.140289	1.677215	2.757286	0.000000	0.218636	0.000000	0.000002	0.000002	0.000000	0.000000
2.662413	14.554067	21.236576	-1.590093	2.155621	2.870969	0.000000	0.297473	0.000000	0.000003	0.000002	0.000000	0.000000
3.108373	16.201348	19.134999	-2.116832	2.537080	3.021990	0.000000	0.380187	0.000000	0.000004	0.000002	0.000000	0.000000
3.657433	18.313721	16.774601	-1.707646	1.787276	3.205463	0.000000	0.287149	0.000000	0.000004	0.000002	0.000000	0.000000
4.206493	19.907461	15.163259	-1.177841	1.164775	3.336377	0.000000	0.189018	0.000000	0.000005	0.000001	0.000000	0.000000
4.755553	20.869996	14.186202	-0.564839	0.625238	3.412410	0.000000	0.087534	0.000000	0.000006	0.000001	0.000000	0.000000
5.304613	21.133335	13.773836	0.088060	0.130236	3.432214	0.000000	-0.015503	0.000000	0.000007	0.000001	0.000000	0.000000
5.603185	21.117944	13.681228	0.018702	0.143947	3.430262	0.000000	-0.006536	0.000000	0.000007	0.000001	0.000000	0.000000
5.936519	21.110739	13.593553	0.002913	0.119077	3.428083	0.000000	-0.006536	0.000000	0.000007	0.000001	0.000000	0.000000
6.269852	21.114061	13.522458	-0.012877	0.094208	3.425904	0.000000	-0.006536	0.000000	0.000008	0.000001	0.000000	0.000000
6.604435	21.127981	13.467769	-0.028726	0.069246	3.423717	0.000000	-0.006536	0.000000	0.000008	0.000001	0.000000	0.000000
6.901758	21.149250	13.433187	-0.098066	0.082160	3.421774	0.000000	0.002404	0.000000	0.000008	0.000001	0.000000	0.000000
7.450818	20.896503	13.603829	0.555668	-0.394783	3.394891	0.000000	-0.100179	0.000000	0.000009	0.000001	0.000000	0.000000
7.999878	19.943283	14.310487	1.170151	-0.899846	3.312090	0.000000	-0.200986	0.000000	0.000009	0.000001	0.000000	0.000000
8.548938	18.356919	15.603495	1.701981	-1.469002	3.174839	0.000000	-0.298228	0.000000	0.000009	0.000000	0.000000	0.000000
9.097998	16.249464	17.574950	2.113592	-2.142792	2.985571	0.000000	-0.390180	0.000000	0.000009	-0.000000	0.000000	0.000000
9.543958	14.605285	19.331605	1.586348	-1.779599	2.829874	0.000000	-0.308471	0.000000	0.000009	0.000000	0.000000	0.000000
9.984918	13.409433	20.711004	1.135867	-1.336670	2.711098	0.000000	-0.230759	0.000000	0.000010	0.000000	0.000000	0.000000
10.425878	12.586572	21.671363	0.737280	-0.832923	2.625978	0.000000	-0.155675	0.000000	0.000010	0.000001	0.000000	0.000000
10.866838	12.099107	22.168985	0.372378	-0.291279	2.573544	0.000000	-0.082365	0.000000	0.000010	0.000001	0.000000	0.000000
11.309048	11.924632	22.180706	0.053623	0.209169	2.553180	0.000000	-0.016253	0.000000	0.000011	0.000001	0.000000	0.000000
11.606371	11.900180	22.060485	0.028618	0.195178	2.548347	0.000000	-0.016253	0.000000	0.000011	0.000001	0.000000	0.000000
12.086371	11.892083	21.883956	-0.011750	0.172591	2.540545	0.000000	-0.016253	0.000000	0.000011	0.000001	0.000000	0.000000
12.566371	11.922741	21.729111	-0.052119	0.150003	2.532744	0.000000	-0.016253	0.000000	0.000012	0.000001	0.000000	0.000000
13.046371	11.992152	21.595949	-0.092488	0.127416	2.524942	0.000000	-0.016253	0.000000	0.000012	0.000001	0.000000	0.000000
13.526371	12.100317	21.484471	-0.132856	0.104829	2.517140	0.000000	-0.016253	0.000000	0.000013	0.000001	0.000000	0.000000
14.007621	12.247669	21.394472	-0.173330	0.082183	2.509318	0.000000	-0.016253	0.000000	0.000014	0.000001	0.000000	0.000000
14.304943	12.358173	21.349762	-0.168033	0.015843	2.504485	0.000000	-0.022394	0.000000	0.000014	0.000001	0.000000	0.000000
14.745903	12.664884	21.102122	-0.530157	0.543614	2.510243	0.000000	0.048535	0.000000	0.000014	0.000001	0.000000	0.000000
15.186863	13.300392	20.398200	-0.916502	1.046650	2.547369	0.000000	0.120016	0.000000	0.000015	0.000002	0.000000	0.000000
15.627823	14.293731	19.270026	-1.344719	1.502065	2.616287	0.000000	0.192865	0.000000	0.000016	0.000002	0.000000	0.000000
16.068783	15.690286	17.768929	-1.834372	1.889137	2.717780	0.000000	0.267910	0.000000	0.000017	0.000003	0.000000	0.000000
16.514743	17.577518	15.941707	-2.412591	2.190998	2.854702	0.000000	0.346468	0.000000	0.000018	0.000003	0.000000	0.000000
17.063803	20.001436	13.901464	-1.975942	1.546817	3.021199	0.000000	0.259125	0.000000	0.000020	0.000003	0.000000	0.000000
17.612863	21.865916	12.504321	-1.399722	1.012812	3.138406	0.000000	0.167187	0.000000	0.000021	0.000002	0.000000	0.000000
18.161923	23.039261	11.650761	-0.724632	0.550948	3.204243	0.000000	0.072282	0.000000	0.000022	0.000001	0.000000	0.000000
18.710983	23.438590	11.279987	0.001642	0.128327	3.217544	0.000000	-0.023904	0.000000	0.000022	0.000000	0.000000	0.000000
19.009556	23.477990	11.193861	-0.072371	0.130665	3.212916	0.000000	-0.015499	0.000000	0.000023	0.000000	0.000000	0.000000
19.342889	23.530995	11.116846	-0.086643	0.100378	3.207749	0.000000	-0.015499	0.000000	0.000023	0.000000	0.000000	0.000000
19.676223	23.593514	11.060023	-0.100915	0.070092	3.202583	0.000000	-0.015499	0.000000	0.000023	0.000000	0.000000	0.000000
20.010806	23.666130	11.023155	-0.232496	0.094307	3.197417	0.000000	0.000343	0.000000	0.000023	0.000001	0.000000	0.000000
20.308129	23.808320	10.975166	-0.307933	0.095765	3.197519	0.000000	0.008696	0.000000	0.000023	0.000001	0.000000	0.000000
20.857189	23.735829	11.092078	0.439178	-0.309952	3.176070	0.000000	-0.086710	0.000000	0.000023	-0.000000	0.000000	0.000000
21.406249	22.855170	11.663952	1.155267	-0.737747	3.102583	0.000000	-0.180577	0.000000	0.000023	-0.000001	0.000000	0.000000
21.955309	21.228546	12.731523	1.789754	-1.218090	2.978363	0.000000	-0.271242	0.000000	0.000022	-0.000002	0.000000	0.000000
22.504369	18.970855	14.370831	2.297822	-1.785195	2.805612	0.000000	-0.357095	0.000000	0.000021	-0.000002	0.000000	0.000000
22.950329	17.191549	15.842666	1.706093	-1.501255	2.663659	0.000000	-0.279876	0.000000	0.000021	-0.000002	0.000000	0.000000
23.391289	15.916236	17.016169	1.197007	-1.149863	2.556569	0.000000	-0.206298	0.000000	0.000020	-0.000001	0.000000	0.000000
23.832249	15.064174	17.855430	0.742609	-0.746154	2.481377	0.000000	-0.135070	0.000000	0.000019	-0.000001	0.000000	0.000000
24.273209	14.596437	18.322264	0.322139	-0.308494	2.437223	0.000000	-0.065381	0.000000	0.000019	-0.000000	0.000000	0.000000
24.715418	14.491775	18.395185	-0.048168	0.098030	2.423604	0.000000	-0.002378	0.000000	0.000019	0.000000	0.000000	0.000000
25.012741	14.526532	18.341744	-0.068733	0.081711	2.422897	0.000000	-0.002378	0.000000	0.000019	0.000000	0.000000	0.000000
25.346075	14.580039	18.293368	-0.091788	0.063416	2.422104	0.000000	-0.002378	0.000000	0.000019	0.000000	0.000000	0.000000
25.679408	14.648916	18.257189	-0.114843	0.045122	2.421311	0.000000	-0.002378	0.000000	0.000019	0.000000	0.000000	0.000000
26.013991	14.733208	18.233509	-0.018459	-0.121161	2.420491	0.000000	-0.022015	0.000000	0.000019	0.000000	0.000000	0.000000
26.311314	14.750187	18.310476	-0.002481	-0.182601	2.413946	0.000000	-0.027933	0.000000	0.000019	0.000000	0.000000	0.000000
26.752274	14.934098	18.272945	-0.416170	0.267388	2.416741	0.000000	0.040623	0.000000	0.000020	0.000001	0.000000	0.000000
27.193234	15.489823	17.842430	-0.848874	0.705212	2.449839	0.000000	0.109642	0.000000	0.000020	0.000001	0.000000	0.000000
27.634194	16.442754	17.038516	-1.320360	1.110948	2.513618	0.000000	0.179910	0.000000	0.000021	0.000002	0.000000	0.000000
28.075154	17.836426	15.897783	-1.852169	1.466138	2.608804	0.000000	0.252227	0.000000	0.000021	0.000002	0.000000	0.000000
28.521114	19.758723	14.454948	-2.473568	1.755531	2.738085	0.000000	0.327860	0.000000	0.000022	0.000003	0.000000	0.000000
29.070174	22.201975	12.847381	-1.949969	1.189604	2.895430	0.000000	0.244444	0.000000	0.000024	0.000002	0.000000	0.000000
29.619234	23.990752	11.811372	-1.288634	0.708410	3.005715	0.000000	0.156692	0.000000	0.000024	0.000001	0.000000	0.000000
30.168294	24.998704	11.273129	-0.536276	0.277675	3.066985	0.000000	0.066161	0.000000	0.000025	0.000000	0.000000	0.000000
30.717354	25.154635	11.194314	0.253962	-0.133282	3.078152	0.000000	-0.025544	0.000000	0.000025	-0.000000	0.000000	0.000000
31.015927	25.045891	11.264490	0.175961	-0.131000	3.072926	0.000000	-0.017503	0.000000	0.000025	-0.000000	0.000000	0.000000
31.349260	24.933157	11.361857	0.162240	-0.161099	3.067092	0.000000	-0.017503	0.000000	0.000025	-0.000000	0.000000	0.000000
31.682593	24.829571	11.479289	0.148519	-0.191199	3.061258	0.000000	-0.017503	0.000000	0.000024	-0.000000	0.000000	0.000000
32.017177	24.734795	11.617342	0.134747	-0.221411	3.055402	0.000000	-0.017503	0.000000	0.000024	-0.000000	0.000000	0.000000
32.314499	24.658307	11.756985	0.058093	-0.217546	3.050198	0.000000	-0.009535	0.000000	0.000024	-0.000000	0.000000	0.000000
32.863559	24.172025	12.235073	0.822325	-0.658333	3.020077	0.000000	-0.100026	0.000000	0.000024	-0.000001	0.000000	0.000000
33.412619	22.873610	13.219954	1.528471	-1.146012	2.940684	0.000000	-0.188744	0.000000	0.000023	-0.000002	0.000000	0.000000
33.961679	20.854776	14.781777	2.126654	-1.715319	2.813430	0.000000	-0.274114	0.000000	0.000022	-0.000003	0.000000	0.000000
34.510739	18.258122	17.031790	2.574620	-2.406804	2.640570	0.000000	-0.354621	0.000000	0.000020	-0.000003	0.000000	0.000000
34.956699	16.239095	19.044356	1.968970	-2.087238	2.498769	0.000000	-0.281681	0.000000	0.000019	-0.000003	0.000000	0.000000
35.397659	14.733521	20.709004	1.458293	-1.673450	2.389944	0.000000	-0.212376	0.000000	0.000018	-0.000002	0.000000	0.000000
35.838619	13.647352	21.973626	1.014240	-1.183520	2.311117	0.000000	-0.145491	0.000000	0.000017	-0.000002	0.000000	0.000000
36.279579	12.930967	22.780683	0.616526	-0.639742	2.261391	0.000000	-0.080262	0.000000	0.000016	-0.000001	0.000000	0.000000
36.721789	12.550940	23.093763	0.277648	-0.123534	2.240172	0.000000	-0.021441	0.000000	0.000015	-0.000001	0.000000	0.000000
37.019112	12.393425	23.171108	0.252132	-0.136605	2.233798	0.000000	-0.021441	0.000000	0.000015	-0.000001	0.000000	0.000000
37.352445	12.234872	23.267063	0.223526	-0.151259	2.226651	0.000000	-0.021441	0.000000	0.000015	-0.000001	0.000000	0.000000
37.685779	12.095389	23.372787	0.194921	-0.165913	2.219504	0.000000	-0.021441	0.000000	0.000014	-0.000001	0.000000	0.000000
38.020362	11.974562	23.488732	0.166208	-0.180622	2.212331	0.000000	-0.021441	0.000000	0.000014	-0.000001	0.000000	0.000000
38.317684	11.883313	23.600025	0.169830	-0.251561	2.205956	0.000000	-0.026850	0.000000	0.000014	-0.000001	0.000000	0.000000
38.758644	11.885026	23.560477	-0.173729	0.340905	2.208046	0.000000	0.036335	0.000000	0.000013	-0.000001	0.000000	0.000000
39.199604	12.192072	23.003291	-0.525225	0.917860	2.238063	0.000000	0.099935	0.000000	0.000013	-0.000000	0.000000	0.000000
39.640564	12.818479	21.953820	-0.900717	1.453053	2.296348	0.000000	0.164672	0.000000	0.000013	-0.000000	0.000000	0.000000
40.081524	13.792867	20.459812	-1.317361	1.922133	2.383565	0.000000	0.231285	0.000000	0.000013	0.000000	0.000000	0.000000
40.527484	15.177328	18.566671	-1.798018	2.305042	2.502181	0.000000	0.300937	0.000000	0.000013	0.000001	0.000000	0.000000
41.076544	16.944018	16.439231	-1.400597	1.592525	2.646881	0.000000	0.225370	0.000000	0.000013	0.000000	0.000000	0.000000
41.625604	18.217051	15.027713	-0.904245	0.993439	2.748930	0.000000	0.145805	0.000000	0.000013	-0.000000	0.000000	0.000000
42.174664	18.906507	14.231579	-0.344022	0.465114	2.806517	0.000000	0.063654	0.000000	0.000013	-0.000001	0.000000	0.000000
42.723724	18.963684	13.994123	0.240501	-0.030082	2.818622	0.000000	-0.019627	0.000000	0.000012	-0.000001	0.000000	0.000000
43.022297	18.854527	13.996625	0.174639	-0.014858	2.814961	0.000000	-0.012263	0.000000	0.000012	-0.000001	0.000000	0.000000
43.502297	18.699466	14.027353	0.148405	-0.049160	2.809076	0.000000	-0.012263	0.000000	0.000012	-0.000001	0.000000	0.000000
43.982297	18.569590	14.091011	0.122170	-0.083461	2.803190	0.000000	-0.012263	0.000000	0.000011	-0.000001	0.000000	0.000000
44.462297	18.464899	14.187599	0.095936	-0.117763	2.797304	0.000000	-0.012263	0.000000	0.000011	-0.000001	0.000000	0.000000
44.942297	18.385393	14.317116	0.069701	-0.152064	2.791419	0.000000	-0.012263	0.000000	0.000010	-0.000001	0.000000	0.000000
45.423547	18.331191	14.479850	-0.047425	-0.114713	2.785535	0.000000	0.001538	0.000000	0.000009	-0.000001	0.000000	0.000000
45.720870	18.364225	14.554249	-0.111659	-0.097493	2.785993	0.000000	0.008817	0.000000	0.000009	-0.000001	0.000000	0.000000
46.269930	18.177625	14.942775	0.449501	-0.614304	2.768261	0.000000	-0.073315	0.000000	0.000009	-0.000001	0.000000	0.000000
46.818990	17.388671	15.919375	0.978910	-1.174871	2.705725	0.000000	-0.154146	0.000000	0.000008	-0.000002	0.000000	0.000000
47.368050	16.053091	17.553610	1.439174	-1.819122	2.599493	0.000000	-0.232244	0.000000	0.000007	-0.000002	0.000000	0.000000
47.917110	14.265224	19.961884	1.797782	-2.592945	2.451452	0.000000	-0.306221	0.000000	0.000006	-0.000002	0.000000	0.000000
48.363070	12.873950	22.103015	1.332998	-2.188043	2.330183	0.000000	-0.237920	0.000000	0.000005	-0.000002	0.000000	0.000000
48.804030	11.878563	23.817334	0.932884	-1.684861	2.239731	0.000000	-0.172725	0.000000	0.000004	-0.000002	0.000000	0.000000
49.244990	11.215988	25.052259	0.575391	-1.105019	2.177567	0.000000	-0.109497	0.000000	0.000003	-0.000002	0.000000	0.000000
49.685950	10.855953	25.751602	0.244186	-0.474900	2.142982	0.000000	-0.047516	0.000000	0.000003	-0.000002	0.000000	0.000000
50.128160	10.782134	25.883259	-0.049539	0.113305	2.135594	0.000000	0.008687	0.000000	0.000002	-0.000002	0.000000	0.000000
50.425482	10.819811	25.819342	-0.077182	0.101670	2.138177	0.000000	0.008687	0.000000	0.000001	-0.000002	0.000000	0.000000
50.758816	10.881596	25.755910	-0.108174	0.088627	2.141073	0.000000	0.008687	0.000000	0.000001	-0.000002	0.000000	0.000000
51.092149	10.964042	25.701173	-0.139165	0.075583	2.143969	0.000000	0.008687	0.000000	0.000000	-0.000002	0.000000	0.000000
51.426732	11.067350	25.655497	-0.080487	-0.145639	2.146855	0.000000	-0.008730	0.000000	-0.000000	-0.000002	0.000000	0.000000
51.724055	11.123251	25.745619	-0.080248	-0.220611	2.144259	0.000000	-0.013988	0.000000	-0.000000	-0.000002	0.000000	0.000000
52.165015	11.339268	25.653741	-0.411491	0.428178	2.151680	0.000000	0.047675	0.000000	-0.000001	-0.000002	0.000000	0.000000
52.605975	11.854571	24.996120	-0.761534	1.057486	2.186386	0.000000	0.109882	0.000000	-0.000002	-0.000002	0.000000	0.000000
53.046935	12.692700	23.802678	-1.146370	1.638678	2.248772	0.000000	0.173340	0.000000	-0.000003	-0.000002	0.000000	0.000000
53.487895	13.891949	22.127716	-1.583579	2.145312	2.339549	0.000000	0.238772	0.000000	-0.000003	-0.000002	0.000000	0.000000
53.933855	15.527666	20.022400	-2.097365	2.555674	2.461254	0.000000	0.307322	0.000000	-0.000004	-0.000002	0.000000	0.000000
54.482915	17.633625	17.653355	-1.715503	1.784524	2.609814	0.000000	0.233018	0.000000	-0.000005	-0.000002	0.000000	0.000000
55.031975	19.250829	16.056776	-1.212467	1.140482	2.716379	0.000000	0.154581	0.000000	-0.000006	-0.000001	0.000000	0.000000
55.581035	20.265047	15.118941	-0.623788	0.577673	2.779061	0.000000	0.073402	0.000000	-0.000007	-0.000001	0.000000	0.000000
56.130095	20.604638	14.773052	0.008952	0.056011	2.796746	0.000000	-0.009079	0.000000	-0.000007	-0.000001	0.000000	0.000000
56.428668	20.635777	14.722643	-0.059407	0.074222	2.796218	0.000000	-0.001771	0.000000	-0.000008	-0.000001	0.000000	0.000000
56.762001	20.680785	14.680750	-0.075617	0.051456	2.795628	0.000000	-0.001771	0.000000	-0.000008	-0.000001	0.000000	0.000000
57.095334	20.736600	14.654035	-0.091827	0.028690	2.795038	0.000000	-0.001771	0.000000	-0.000008	-0.000001	0.000000	0.000000
57.429918	20.803492	14.642482	-0.108098	0.005839	2.794446	0.000000	-0.001771	0.000000	-0.000009	-0.000001	0.000000	0.000000
57.727240	20.872071	14.645047	-0.177096	0.023801	2.793920	0.000000	0.005530	0.000000	-0.000009	-0.000001	0.000000	0.000000
58.276300	20.710480	14.900103	0.469657	-0.491075	2.774318	0.000000	-0.076829	0.000000	-0.000010	-0.000001	0.000000	0.000000
58.825360	19.852771	15.736329	1.083236	-1.040929	2.709804	0.000000	-0.157824	0.000000	-0.000010	-0.000000	0.000000	0.000000
59.374420	18.359529	17.213288	1.620300	-1.664926	2.601523	0.000000	-0.236020	0.000000	-0.000010	-0.000000	0.000000	0.000000
59.923480	16.336227	19.436180	2.042915	-2.407513	2.451394	0.000000	-0.310030	0.000000	-0.000010	0.000000	0.000000	0.000000
60.369440	14.752630	21.411884	1.520643	-2.004015	2.328422	0.000000	-0.241752	0.000000	-0.000010	-0.000000	0.000000	0.000000
60.810400	13.613679	22.967658	1.072047	-1.510712	2.236267	0.000000	-0.176624	0.000000	-0.000010	-0.000000	0.000000	0.000000
61.251360	12.847342	24.056291	0.672430	-0.948673	2.172359	0.000000	-0.113508	0.000000	-0.000010	-0.000001	0.000000	0.000000
61.692320	12.418608	24.628251	0.303533	-0.343470	2.135972	0.000000	-0.051685	0.000000	-0.000011	-0.000001	0.000000	0.000000
62.134530	12.307942	24.656972	-0.021411	0.216834	2.126697	0.000000	0.004334	0.000000	-0.000011	-0.000001	0.000000	0.000000
62.431853	12.327860	24.531786	-0.045579	0.204209	2.127986	0.000000	0.004334	0.000000	-0.000012	-0.000001	0.000000	0.000000
62.765186	12.367277	24.400365	-0.072674	0.190054	2.129431	0.000000	0.004334	0.000000	-0.000012	-0.000001	0.000000	0.000000
63.098520	12.424759	24.278380	-0.099769	0.175900	2.130876	0.000000	0.004334	0.000000	-0.000012	-0.000001	0.000000	0.000000
63.433103	12.500620	24.165428	-0.126966	0.161692	2.132326	0.000000	0.004334	0.000000	-0.000013	-0.000001	0.000000	0.000000
63.730426	12.583306	24.073032	-0.120272	0.090025	2.133615	0.000000	-0.000899	0.000000	-0.000013	-0.000001	0.000000	0.000000
64.171386	12.849642	23.728526	-0.486011	0.688265	2.146758	0.000000	0.060564	0.000000	-0.000014	-0.000001	0.000000	0.000000
64.612346	13.447065	22.868267	-0.873953	1.255190	2.187129	0.000000	0.122716	0.000000	-0.000014	-0.000002	0.000000	0.000000
65.053306	14.402869	21.531395	-1.301824	1.765004	2.255190	0.000000	0.186267	0.000000	-0.000015	-0.000002	0.000000	0.000000
65.494266	15.760722	19.778738	-1.789172	2.194512	2.351715	0.000000	0.251938	0.000000	-0.000016	-0.000003	0.000000	0.000000
65.940226	17.605822	17.665241	-2.362952	2.524924	2.479374	0.000000	0.320881	0.000000	-0.000017	-0.000003	0.000000	0.000000
66.489286	19.971149	15.300928	-1.919508	1.806606	2.635196	0.000000	0.245873	0.000000	-0.000019	-0.000002	0.000000	0.000000
67.038346	21.771735	13.650547	-1.340479	1.216968	2.748574	0.000000	0.166503	0.000000	-0.000020	-0.000002	0.000000	0.000000
67.587406	22.880395	12.596545	-0.666766	0.714012	2.817496	0.000000	0.084180	0.000000	-0.000021	-0.000001	0.000000	0.000000
68.136466	23.218819	12.063848	0.054044	0.261913	2.840740	0.000000	0.000363	0.000000	-0.000021	-0.000000	0.000000	0.000000
68.435038	23.226620	11.896647	-0.019493	0.266559	2.843065	0.000000	0.007787	0.000000	-0.000022	-0.000001	0.000000	0.000000
68.768372	23.244401	11.728944	-0.033850	0.236549	2.845661	0.000000	0.007787	0.000000	-0.000022	-0.000001	0.000000	0.000000
69.101705	23.271753	11.581248	-0.048206	0.206539	2.848257	0.000000	0.007787	0.000000	-0.000022	-0.000001	0.000000	0.000000
69.436288	23.308833	11.453118	-0.062617	0.176417	2.850862	0.000000	0.007787	0.000000	-0.000022	-0.000001	0.000000	0.000000
69.733611	23.349875	11.356171	-0.136443	0.179326	2.853178	0.000000	0.015243	0.000000	-0.000022	-0.000001	0.000000	0.000000
70.282671	23.098681	11.386700	0.591234	-0.235256	2.838367	0.000000	-0.069113	0.000000	-0.000022	0.000000	0.000000	0.000000
