#ParticleID	Turn	x[m]	xp	y[m]	yp	z[m]	dE[GeV]# s	beta_x	beta_y	alpha_x	alpha_y	D_x	D_y	D_px	D_py	orbit_x	orbit_px	orbit_y	orbit_py
0.300000	11.825097	24.973024	-0.012412	-0.027659	2.618137	0.000000	0.000002	0.000000	-0.000000	0.000001	0.000000	0.000000
0.601250	11.840251	24.993326	-0.037892	-0.039731	2.618138	0.000000	0.000002	0.000000	-0.000000	0.000001	0.000000	0.000000
0.898573	11.870260	25.020494	-0.033930	-0.113003	2.618138	0.000000	-0.006418	0.000000	-0.000000	0.000001	0.000000	0.000000
1.339533	12.052453	24.842634	-0.380809	0.514815	2.631601	0.000000	0.067540	0.000000	0.000000	0.000001	0.000000	0.000000
1.780493	12.547052	24.119342	-0.745087	1.119210	2.677815	0.000000	0.142267	0.000000	0.000001	0.000001	0.000000	0.000000
2.221453	13.376655	22.883526	-1.143406	1.672682	2.757306	0.000000	0.218614	0.000000	0.000001	0.000001	0.000000	0.000000
2.662413	14.579163	21.191416	-1.593964	2.150048	2.870980	0.000000	0.297451	0.000000	0.000001	0.000001	0.000000	0.000000
3.108373	16.230302	19.095183	-2.121642	2.530720	3.021992	0.000000	0.380166	0.000000	0.000001	0.000001	0.000000	0.000000
3.657433	18.347578	16.740877	-1.711715	1.782475	3.205454	0.000000	0.287128	0.000000	0.000002	0.000001	0.000000	0.000000
4.206493	19.945244	15.134111	-1.180881	1.161192	3.336357	0.000000	0.188997	0.000000	0.000002	0.000001	0.000000	0.000000
4.755553	20.910449	14.160439	-0.566635	0.622619	3.412380	0.000000	0.087514	0.000000	0.000002	0.000001	0.000000	0.000000
5.304613	21.175016	13.750509	0.087634	0.128393	3.432173	0.000000	-0.015521	0.000000	0.000003	0.000000	0.000000	0.000000
5.603185	21.159937	13.659044	0.018194	0.142019	3.430216	0.000000	-0.006554	0.000000	0.000003	0.000000	0.000000	0.000000
5.936519	21.153060	13.572663	0.002436	0.117123	3.428031	0.000000	-0.006554	0.000000	0.000003	0.000000	0.000000	0.000000
6.269852	21.156689	13.502880	-0.013322	0.092227	3.425847	0.000000	-0.006554	0.000000	0.000003	0.000000	0.000000	0.000000
6.604435	21.170896	13.449525	-0.029140	0.067238	3.423654	0.000000	-0.006554	0.000000	0.000003	0.000000	0.000000	0.000000
6.901758	21.192403	13.416145	-0.098566	0.080084	3.421705	0.000000	0.002386	0.000000	0.000003	0.000000	0.000000	0.000000
7.450818	20.939409	13.588811	0.556615	-0.396415	3.394814	0.000000	-0.100195	0.000000	0.000004	0.000000	0.000000	0.000000
7.999878	19.984379	14.297072	1.172479	-0.901151	3.312005	0.000000	-0.200999	0.000000	0.000004	0.000000	0.000000	0.000000
8.548938	18.394772	15.591376	1.705525	-1.470073	3.174747	0.000000	-0.298238	0.000000	0.000004	0.000000	0.000000	0.000000
9.097998	16.282869	17.563915	2.118102	-2.143706	2.985475	0.000000	-0.390187	0.000000	0.000004	-0.000000	0.000000	0.000000
9.543958	14.635119	19.321589	1.589872	-1.780964	2.829774	0.000000	-0.308480	0.000000	0.000004	0.000000	0.000000	0.000000
9.984918	13.436530	20.702368	1.138574	-1.338420	2.710993	0.000000	-0.230771	0.000000	0.000004	0.000000	0.000000	0.000000
10.425878	12.611595	21.664411	0.739294	-0.834979	2.625867	0.000000	-0.155690	0.000000	0.000004	0.000000	0.000000	0.000000
10.866838	12.122624	22.163947	0.373791	-0.293548	2.573427	0.000000	-0.082383	0.000000	0.000004	0.000000	0.000000	0.000000
11.309048	11.947141	22.177730	0.054557	0.206796	2.553054	0.000000	-0.016274	0.000000	0.000004	0.000000	0.000000	0.000000
11.606371	11.922121	22.058917	0.029596	0.192817	2.548215	0.000000	-0.016274	0.000000	0.000005	0.000000	0.000000	0.000000
12.086371	11.913051	21.884646	-0.010701	0.170248	2.540404	0.000000	-0.016274	0.000000	0.000005	0.000000	0.000000	0.000000
12.566371	11.942666	21.732041	-0.050997	0.147679	2.532592	0.000000	-0.016274	0.000000	0.000005	0.000000	0.000000	0.000000
13.046371	12.010965	21.601103	-0.091294	0.125110	2.524780	0.000000	-0.016274	0.000000	0.000005	0.000000	0.000000	0.000000
13.526371	12.117950	21.491830	-0.131590	0.102541	2.516969	0.000000	-0.016274	0.000000	0.000005	0.000000	0.000000	0.000000
14.007621	12.264048	21.404024	-0.171992	0.079913	2.509137	0.000000	-0.016274	0.000000	0.000006	0.000000	0.000000	0.000000
14.304943	12.373744	21.360661	-0.166610	0.013554	2.504298	0.000000	-0.022415	0.000000	0.000006	0.000000	0.000000	0.000000
14.745903	12.679339	21.114895	-0.529042	0.541668	2.510045	0.000000	0.048509	0.000000	0.000006	0.000001	0.000000	0.000000
15.186863	13.313981	20.412504	-0.915645	1.045137	2.547159	0.000000	0.119985	0.000000	0.000006	0.000001	0.000000	0.000000
15.627823	14.306663	19.285447	-1.344080	1.501053	2.616062	0.000000	0.192828	0.000000	0.000007	0.000001	0.000000	0.000000
16.068783	15.702740	17.785004	-1.833923	1.888672	2.717539	0.000000	0.267867	0.000000	0.000007	0.000001	0.000000	0.000000
16.514743	17.589647	15.957941	-2.412311	2.191106	2.854440	0.000000	0.346419	0.000000	0.000008	0.000001	0.000000	0.000000
17.063803	20.012943	13.917764	-1.975097	1.546589	3.020914	0.000000	0.259085	0.000000	0.000008	0.000001	0.000000	0.000000
17.612863	21.876210	12.521063	-1.398372	1.012231	3.138101	0.000000	0.167155	0.000000	0.000009	0.000001	0.000000	0.000000
18.161923	23.047837	11.668352	-0.722873	0.549973	3.203925	0.000000	0.072261	0.000000	0.000009	0.000000	0.000000	0.000000
18.710983	23.445065	11.298896	0.003686	0.126887	3.217217	0.000000	-0.023915	0.000000	0.000009	0.000000	0.000000	0.000000
19.009556	23.483256	11.213581	-0.070344	0.129336	3.212586	0.000000	-0.015509	0.000000	0.000009	0.000000	0.000000	0.000000
19.342889	23.534907	11.137432	-0.084609	0.099113	3.207416	0.000000	-0.015509	0.000000	0.000010	0.000000	0.000000	0.000000
19.676223	23.596068	11.081431	-0.098873	0.068889	3.202246	0.000000	-0.015509	0.000000	0.000010	0.000000	0.000000	0.000000
20.010806	23.667314	11.045346	-0.230453	0.093278	3.197077	0.000000	0.000331	0.000000	0.000010	0.000000	0.000000	0.000000
20.308129	23.808285	10.997951	-0.305884	0.094859	3.197175	0.000000	0.008684	0.000000	0.000010	0.000000	0.000000	0.000000
20.857189	23.733557	11.116213	0.441182	-0.311519	3.175723	0.000000	-0.086711	0.000000	0.000010	-0.000000	0.000000	0.000000
21.406249	22.850787	11.690219	1.157084	-0.740087	3.102239	0.000000	-0.180567	0.000000	0.000010	-0.000000	0.000000	0.000000
21.955309	21.222330	12.760856	1.791257	-1.221369	2.978027	0.000000	-0.271221	0.000000	0.000009	-0.000001	0.000000	0.000000
22.504369	18.963213	14.404383	2.298903	-1.789646	2.805290	0.000000	-0.357063	0.000000	0.000009	-0.000001	0.000000	0.000000
22.950329	17.182926	15.879855	1.707222	-1.504925	2.663349	0.000000	-0.279852	0.000000	0.000009	-0.000001	0.000000	0.000000
23.391289	15.906577	17.056188	1.198236	-1.152588	2.556268	0.000000	-0.206282	0.000000	0.000008	-0.000001	0.000000	0.000000
23.832249	15.053368	17.897388	0.743994	-0.747808	2.481080	0.000000	-0.135062	0.000000	0.000008	-0.000000	0.000000	0.000000
24.273209	14.584318	18.365180	0.323743	-0.309004	2.436929	0.000000	-0.065380	0.000000	0.000008	-0.000000	0.000000	0.000000
24.715418	14.478113	18.438034	-0.046302	0.098578	2.423308	0.000000	-0.002385	0.000000	0.000008	0.000000	0.000000	0.000000
25.012741	14.511766	18.384256	-0.066882	0.082296	2.422599	0.000000	-0.002385	0.000000	0.000008	0.000000	0.000000	0.000000
25.346075	14.564045	18.335477	-0.089955	0.064042	2.421804	0.000000	-0.002385	0.000000	0.000008	0.000000	0.000000	0.000000
25.679408	14.631705	18.298867	-0.113027	0.045787	2.421009	0.000000	-0.002385	0.000000	0.000008	0.000000	0.000000	0.000000
26.013991	14.714790	18.274729	-0.016811	-0.120789	2.420186	0.000000	-0.022019	0.000000	0.000008	0.000000	0.000000	0.000000
26.311314	14.730795	18.351464	-0.000900	-0.182296	2.413639	0.000000	-0.027938	0.000000	0.000008	0.000000	0.000000	0.000000
26.752274	14.913097	18.313174	-0.414089	0.268798	2.416431	0.000000	0.040611	0.000000	0.000008	0.000000	0.000000	0.000000
27.193234	15.466733	17.880950	-0.846196	0.707661	2.449522	0.000000	0.109622	0.000000	0.000008	0.000000	0.000000	0.000000
27.634194	16.416995	17.074457	-1.316964	1.114326	2.513291	0.000000	0.179881	0.000000	0.000009	0.000001	0.000000	0.000000
28.075154	17.807300	15.930391	-1.847900	1.470291	2.608463	0.000000	0.252189	0.000000	0.000009	0.000001	0.000000	0.000000
28.521114	19.725323	14.483574	-2.468221	1.760271	2.737726	0.000000	0.327813	0.000000	0.000009	0.000001	0.000000	0.000000
29.070174	22.163143	12.871429	-1.945483	1.193250	2.895049	0.000000	0.244409	0.000000	0.000010	0.000001	0.000000	0.000000
29.619234	23.947615	11.831896	-1.285326	0.711222	3.005319	0.000000	0.156670	0.000000	0.000010	0.000000	0.000000	0.000000
30.168294	24.952692	11.290930	-0.534380	0.279852	3.066581	0.000000	0.066152	0.000000	0.000010	0.000000	0.000000	0.000000
30.717354	25.107382	11.209999	0.254312	-0.131584	3.077746	0.000000	-0.025539	0.000000	0.000010	-0.000000	0.000000	0.000000
31.015927	24.998367	11.279121	0.176402	-0.129210	3.072522	0.000000	-0.017498	0.000000	0.000010	-0.000000	0.000000	0.000000
31.349260	24.885349	11.375276	0.162653	-0.159257	3.066689	0.000000	-0.017498	0.000000	0.000010	-0.000000	0.000000	0.000000
31.682593	24.781497	11.491463	0.148904	-0.189303	3.060856	0.000000	-0.017498	0.000000	0.000010	-0.000000	0.000000	0.000000
32.017177	24.686473	11.628229	0.135103	-0.219462	3.055002	0.000000	-0.017498	0.000000	0.000010	-0.000000	0.000000	0.000000
32.314499	24.609781	11.766700	0.058544	-0.215521	3.049799	0.000000	-0.009531	0.000000	0.000010	-0.000000	0.000000	0.000000
32.863559	24.123893	12.242666	0.821163	-0.656471	3.019683	0.000000	-0.100009	0.000000	0.000010	-0.000000	0.000000	0.000000
33.412619	22.827608	13.225530	1.525779	-1.144180	2.940303	0.000000	-0.188714	0.000000	0.000010	-0.000001	0.000000	0.000000
33.961679	20.812488	14.785298	2.122621	-1.713386	2.813068	0.000000	-0.274072	0.000000	0.000009	-0.000001	0.000000	0.000000
34.510739	18.220872	17.033069	2.569533	-2.404632	2.640233	0.000000	-0.354568	0.000000	0.000008	-0.000001	0.000000	0.000000
34.956699	16.205870	19.043571	1.965001	-2.084800	2.498453	0.000000	-0.281636	0.000000	0.000008	-0.000001	0.000000	0.000000
35.397659	14.703375	20.705992	1.455252	-1.670858	2.389645	0.000000	-0.212340	0.000000	0.000007	-0.000001	0.000000	0.000000
35.838619	13.619533	21.968304	1.011988	-1.180894	2.310832	0.000000	-0.145462	0.000000	0.000007	-0.000001	0.000000	0.000000
36.279579	12.904825	22.773073	0.614960	-0.637199	2.261117	0.000000	-0.080241	0.000000	0.000007	-0.000001	0.000000	0.000000
36.721789	12.525907	23.083985	0.276637	-0.121172	2.239906	0.000000	-0.021426	0.000000	0.000006	-0.000000	0.000000	0.000000
37.019112	12.369004	23.159925	0.251084	-0.134242	2.233536	0.000000	-0.021426	0.000000	0.000006	-0.000000	0.000000	0.000000
37.352445	12.211164	23.254304	0.222436	-0.148894	2.226394	0.000000	-0.021426	0.000000	0.000006	-0.000000	0.000000	0.000000
37.685779	12.072423	23.358450	0.193788	-0.163546	2.219252	0.000000	-0.021426	0.000000	0.000006	-0.000000	0.000000	0.000000
38.020362	11.952368	23.472810	0.165032	-0.178253	2.212083	0.000000	-0.021426	0.000000	0.000006	-0.000000	0.000000	0.000000
38.317684	11.861830	23.582693	0.168566	-0.249151	2.205713	0.000000	-0.026835	0.000000	0.000006	-0.000000	0.000000	0.000000
38.758644	11.864444	23.541230	-0.174517	0.342823	2.207808	0.000000	0.036344	0.000000	0.000006	-0.000000	0.000000	0.000000
39.199604	12.171988	22.982603	-0.525573	0.919198	2.237827	0.000000	0.099937	0.000000	0.000005	-0.000000	0.000000	0.000000
39.640564	12.798514	21.932231	-0.900640	1.453750	2.296112	0.000000	0.164669	0.000000	0.000005	-0.000000	0.000000	0.000000
40.081524	13.772646	20.437903	-1.316856	1.922158	2.383327	0.000000	0.231276	0.000000	0.000005	0.000000	0.000000	0.000000
40.527484	15.156456	18.545045	-1.797060	2.304389	2.501936	0.000000	0.300922	0.000000	0.000006	0.000000	0.000000	0.000000
41.076544	16.922522	16.418015	-1.400425	1.592424	2.646630	0.000000	0.225362	0.000000	0.000006	0.000000	0.000000	0.000000
41.625604	18.195806	15.006310	-0.904872	0.993883	2.748677	0.000000	0.145805	0.000000	0.000006	-0.000000	0.000000	0.000000
42.174664	18.886370	14.209377	-0.345403	0.466135	2.806267	0.000000	0.063662	0.000000	0.000005	-0.000000	0.000000	0.000000
42.723724	18.945435	13.970451	0.238464	-0.028412	2.818379	0.000000	-0.019610	0.000000	0.000005	-0.000000	0.000000	0.000000
43.022297	18.837469	13.972002	0.172643	-0.013284	2.814722	0.000000	-0.012246	0.000000	0.000005	-0.000000	0.000000	0.000000
43.502297	18.684328	14.001248	0.146402	-0.047645	2.808844	0.000000	-0.012246	0.000000	0.000005	-0.000000	0.000000	0.000000
43.982297	18.556377	14.063480	0.120162	-0.082005	2.802966	0.000000	-0.012246	0.000000	0.000005	-0.000000	0.000000	0.000000
44.462297	18.453617	14.158698	0.093921	-0.116366	2.797088	0.000000	-0.012246	0.000000	0.000004	-0.000000	0.000000	0.000000
44.942297	18.376049	14.286903	0.067680	-0.150726	2.791210	0.000000	-0.012246	0.000000	0.000004	-0.000000	0.000000	0.000000
45.423547	18.323795	14.448377	-0.049415	-0.113590	2.785334	0.000000	0.001554	0.000000	0.000004	-0.000000	0.000000	0.000000
45.720870	18.358015	14.522120	-0.113645	-0.096492	2.785796	0.000000	0.008832	0.000000	0.000004	-0.000000	0.000000	0.000000
46.269930	18.173693	14.909004	0.447363	-0.612297	2.768074	0.000000	-0.073293	0.000000	0.000004	-0.000001	0.000000	0.000000
46.818990	17.387101	15.882786	0.976772	-1.171715	2.705551	0.000000	-0.154119	0.000000	0.000003	-0.000001	0.000000	0.000000
47.368050	16.053801	17.512826	1.437186	-1.814592	2.599336	0.000000	-0.232211	0.000000	0.000003	-0.000001	0.000000	0.000000
47.917110	14.267969	19.915229	1.796085	-2.586718	2.451313	0.000000	-0.306184	0.000000	0.000002	-0.000001	0.000000	0.000000
48.363070	12.878157	22.051246	1.331407	-2.182851	2.330060	0.000000	-0.237885	0.000000	0.000002	-0.000001	0.000000	0.000000
48.804030	11.884154	23.761530	0.931325	-1.680937	2.239622	0.000000	-0.172693	0.000000	0.000002	-0.000001	0.000000	0.000000
49.244990	11.222966	24.993621	0.573792	-1.102541	2.177470	0.000000	-0.109468	0.000000	0.000001	-0.000001	0.000000	0.000000
49.685950	10.864385	25.691460	0.242475	-0.473981	2.142897	0.000000	-0.047490	0.000000	0.000001	-0.000001	0.000000	0.000000
50.128160	10.792157	25.823013	-0.051416	0.112771	2.135520	0.000000	0.008711	0.000000	0.000001	-0.000001	0.000000	0.000000
50.425482	10.830944	25.759421	-0.079039	0.101111	2.138110	0.000000	0.008711	0.000000	0.000001	-0.000001	0.000000	0.000000
50.758816	10.893959	25.696371	-0.110007	0.088038	2.141014	0.000000	0.008711	0.000000	0.000000	-0.000001	0.000000	0.000000
51.092149	10.977620	25.642036	-0.140975	0.074966	2.143918	0.000000	0.008711	0.000000	0.000000	-0.000001	0.000000	0.000000
51.426732	11.082131	25.596781	-0.082154	-0.145809	2.146811	0.000000	-0.008705	0.000000	0.000000	-0.000001	0.000000	0.000000
51.724055	11.139014	25.687013	-0.081848	-0.220664	2.144223	0.000000	-0.013964	0.000000	-0.000000	-0.000001	0.000000	0.000000
52.165015	11.356614	25.595866	-0.413491	0.426579	2.151654	0.000000	0.047699	0.000000	-0.000000	-0.000001	0.000000	0.000000
52.605975	11.873889	24.940313	-0.764025	1.054413	2.186370	0.000000	0.109905	0.000000	-0.000001	-0.000001	0.000000	0.000000
53.046935	12.714473	23.750181	-1.149466	1.634273	2.248765	0.000000	0.173363	0.000000	-0.000001	-0.000001	0.000000	0.000000
53.487895	13.916769	22.079621	-1.587422	2.139774	2.339552	0.000000	0.238795	0.000000	-0.000001	-0.000001	0.000000	0.000000
53.933855	15.556315	19.979661	-2.102138	2.549252	2.461267	0.000000	0.307346	0.000000	-0.000002	-0.000001	0.000000	0.000000
54.482915	17.667142	17.616737	-1.719543	1.779732	2.609839	0.000000	0.233041	0.000000	-0.000002	-0.000001	0.000000	0.000000
55.031975	19.288247	16.024685	-1.215488	1.136979	2.716416	0.000000	0.154603	0.000000	-0.000002	-0.000001	0.000000	0.000000
55.581035	20.305121	15.090108	-0.625577	0.575209	2.779108	0.000000	0.073423	0.000000	-0.000003	-0.000001	0.000000	0.000000
56.130095	20.645940	14.746437	0.008521	0.054411	2.796804	0.000000	-0.009060	0.000000	-0.000003	-0.000000	0.000000	0.000000
56.428668	20.677391	14.697035	-0.059916	0.072520	2.796281	0.000000	-0.001752	0.000000	-0.000003	-0.000000	0.000000	0.000000
56.762001	20.722728	14.656288	-0.076094	0.049720	2.795697	0.000000	-0.001752	0.000000	-0.000003	-0.000000	0.000000	0.000000
57.095334	20.778850	14.630741	-0.092273	0.026921	2.795113	0.000000	-0.001752	0.000000	-0.000003	-0.000000	0.000000	0.000000
57.429918	20.846030	14.620383	-0.108512	0.004036	2.794527	0.000000	-0.001752	0.000000	-0.000004	-0.000000	0.000000	0.000000
57.727240	20.914846	14.624030	-0.177591	0.021910	2.794006	0.000000	0.005548	0.000000	-0.000004	-0.000000	0.000000	0.000000
58.276300	20.753010	14.880841	0.470597	-0.492399	2.774413	0.000000	-0.076813	0.000000	-0.000004	-0.000000	0.000000	0.000000
58.825360	19.893506	15.718254	1.085545	-1.041780	2.709907	0.000000	-0.157812	0.000000	-0.000004	-0.000000	0.000000	0.000000
59.374420	18.397046	17.195916	1.623816	-1.665365	2.601631	0.000000	-0.236012	0.000000	-0.000004	-0.000000	0.000000	0.000000
59.923480	16.369332	19.419080	2.047388	-2.407570	2.451506	0.000000	-0.310025	0.000000	-0.000004	0.000000	0.000000	0.000000
60.369440	14.782195	21.395096	1.524139	-2.004656	2.328538	0.000000	-0.241744	0.000000	-0.000004	-0.000000	0.000000	0.000000
60.810400	13.640527	22.951681	1.074734	-1.511903	2.236386	0.000000	-0.176613	0.000000	-0.000004	-0.000000	0.000000	0.000000
61.251360	12.872131	24.041588	0.674430	-0.950359	2.172484	0.000000	-0.113494	0.000000	-0.000004	-0.000000	0.000000	0.000000
61.692320	12.441901	24.615226	0.304938	-0.345575	2.136104	0.000000	-0.051668	0.000000	-0.000004	-0.000000	0.000000	0.000000
62.134530	12.330232	24.645960	-0.020484	0.214436	2.126837	0.000000	0.004355	0.000000	-0.000005	-0.000000	0.000000	0.000000
62.431853	12.349585	24.522198	-0.044607	0.201818	2.128132	0.000000	0.004355	0.000000	-0.000005	-0.000000	0.000000	0.000000
62.765186	12.388338	24.392368	-0.071652	0.187671	2.129583	0.000000	0.004355	0.000000	-0.000005	-0.000000	0.000000	0.000000
63.098520	12.445121	24.271970	-0.098698	0.173524	2.131035	0.000000	0.004355	0.000000	-0.000005	-0.000000	0.000000	0.000000
63.433103	12.520249	24.160604	-0.125844	0.159324	2.132492	0.000000	0.004355	0.000000	-0.000005	-0.000000	0.000000	0.000000
63.730426	12.602254	24.069615	-0.119062	0.087677	2.133787	0.000000	-0.000878	0.000000	-0.000005	-0.000000	0.000000	0.000000
64.171386	12.867703	23.727200	-0.485201	0.685888	2.146940	0.000000	0.060589	0.000000	-0.000006	-0.000001	0.000000	0.000000
64.612346	13.464574	22.869011	-0.873507	1.252891	2.187324	0.000000	0.122747	0.000000	-0.000006	-0.000001	0.000000	0.000000
65.053306	14.420138	21.534093	-1.301722	1.762889	2.255398	0.000000	0.186302	0.000000	-0.000006	-0.000001	0.000000	0.000000
65.494266	15.778051	19.783184	-1.789408	2.192677	2.351939	0.000000	0.251980	0.000000	-0.000007	-0.000001	0.000000	0.000000
65.940226	17.623518	17.671167	-2.363541	2.523456	2.479618	0.000000	0.320929	0.000000	-0.000007	-0.000001	0.000000	0.000000
66.489286	19.989108	15.308421	-1.919392	1.805202	2.635463	0.000000	0.245912	0.000000	-0.000008	-0.000001	0.000000	0.000000
67.038346	21.789182	13.659590	-1.339667	1.215530	2.748858	0.000000	0.166533	0.000000	-0.000008	-0.000001	0.000000	0.000000
67.587406	22.896592	12.607233	-0.665314	0.712436	2.817794	0.000000	0.084200	0.000000	-0.000009	-0.000000	0.000000	0.000000
68.136466	23.233115	12.076392	0.056033	0.260088	2.841047	0.000000	0.000374	0.000000	-0.000009	-0.000000	0.000000	0.000000
68.435038	23.239744	11.910248	-0.017527	0.264818	2.843375	0.000000	0.007798	0.000000	-0.000009	-0.000000	0.000000	0.000000
68.768372	23.256211	11.743686	-0.031874	0.234868	2.845974	0.000000	0.007798	0.000000	-0.000009	-0.000000	0.000000	0.000000
69.101705	23.282243	11.597090	-0.046222	0.204918	2.848574	0.000000	0.007798	0.000000	-0.000009	-0.000000	0.000000	0.000000
69.436288	23.317992	11.470024	-0.060623	0.174856	2.851183	0.000000	0.007798	0.000000	-0.000009	-0.000000	0.000000	0.000000
69.733611	23.357847	11.373990	-0.134456	0.177862	2.853501	0.000000	0.015254	0.000000	-0.000009	-0.000000	0.000000	0.000000
70.282671	23.104343	11.406405	0.593427	-0.237248	2.838694	0.000000	-0.069112	0.000000	-0.000009	0.000000	0.000000	0.000000
