#ParticleID	Turn	x[m]	xp	y[m]	yp	z[m]	dE[GeV]# s	beta_x	beta_y	alpha_x	alpha_y	D_x	D_y	D_px	D_py	orbit_x	orbit_px	orbit_y	orbit_py
0.300000	11.801612	25.065037	-0.009947	-0.026681	2.618394	0.000000	-0.000095	0.000000	-0.000002	0.000002	0.000000	0.000000
0.601250	11.815295	25.084736	-0.035476	-0.038708	2.618365	0.000000	-0.000095	0.000000	-0.000001	0.000002	0.000000	0.000000
0.898573	11.843882	25.111282	-0.031627	-0.112158	2.618336	0.000000	-0.006516	0.000000	-0.000000	0.000002	0.000000	0.000000
1.339533	12.023761	24.931620	-0.377846	0.518042	2.631757	0.000000	0.067447	0.000000	0.000000	0.000002	0.000000	0.000000
1.780493	12.515407	24.204483	-0.741328	1.124671	2.677930	0.000000	0.142177	0.000000	0.000001	0.000002	0.000000	0.000000
2.221453	13.341282	22.962954	-1.138679	1.680129	2.757382	0.000000	0.218527	0.000000	0.000002	0.000002	0.000000	0.000000
2.662413	14.539117	21.263522	-1.588053	2.159142	2.871017	0.000000	0.297366	0.000000	0.000003	0.000002	0.000000	0.000000
3.108373	16.184351	19.158591	-2.114265	2.541050	3.021991	0.000000	0.380081	0.000000	0.000004	0.000002	0.000000	0.000000
3.657433	18.294144	16.794376	-1.705542	1.790298	3.205406	0.000000	0.287044	0.000000	0.000005	0.000002	0.000000	0.000000
4.206493	19.885898	15.180135	-1.176348	1.167066	3.336262	0.000000	0.188916	0.000000	0.000006	0.000002	0.000000	0.000000
4.755553	20.847179	14.200887	-0.564063	0.626961	3.412240	0.000000	0.087436	0.000000	0.000007	0.000002	0.000000	0.000000
5.304613	21.110087	13.786883	0.088065	0.131512	3.431991	0.000000	-0.015594	0.000000	0.000008	0.000001	0.000000	0.000000
5.603185	21.094661	13.693490	0.018753	0.145268	3.430012	0.000000	-0.006627	0.000000	0.000008	0.000001	0.000000	0.000000
5.936519	21.087428	13.604929	0.002946	0.120412	3.427803	0.000000	-0.006627	0.000000	0.000009	0.000001	0.000000	0.000000
6.269852	21.090734	13.532940	-0.012862	0.095556	3.425593	0.000000	-0.006627	0.000000	0.000009	0.000001	0.000000	0.000000
6.604435	21.104649	13.477345	-0.028728	0.070607	3.423375	0.000000	-0.006627	0.000000	0.000010	0.000001	0.000000	0.000000
6.901758	21.125925	13.441951	-0.098022	0.083554	3.421404	0.000000	0.002311	0.000000	0.000010	0.000001	0.000000	0.000000
7.450818	20.873557	13.611190	0.554936	-0.393607	3.394474	0.000000	-0.100260	0.000000	0.000011	0.000001	0.000000	0.000000
7.999878	19.921545	14.316637	1.168696	-0.898805	3.311633	0.000000	-0.201052	0.000000	0.000011	0.000001	0.000000	0.000000
8.548938	18.337132	15.608541	1.699905	-1.468022	3.174349	0.000000	-0.298279	0.000000	0.000012	0.000000	0.000000	0.000000
9.097998	16.232233	17.578921	2.111041	-2.141803	2.985059	0.000000	-0.390214	0.000000	0.000012	-0.000000	0.000000	0.000000
9.543958	14.590086	19.334593	1.584326	-1.778391	2.829343	0.000000	-0.308519	0.000000	0.000012	0.000000	0.000000	0.000000
9.984918	13.395820	20.712851	1.134278	-1.335301	2.710542	0.000000	-0.230821	0.000000	0.000012	0.000001	0.000000	0.000000
10.425878	12.574197	21.671954	0.736051	-0.831455	2.625391	0.000000	-0.155752	0.000000	0.000012	0.000001	0.000000	0.000000
10.866838	12.087678	22.168263	0.371453	-0.289779	2.572920	0.000000	-0.082457	0.000000	0.000013	0.000001	0.000000	0.000000
11.309048	11.913902	22.178668	0.052933	0.210639	2.552512	0.000000	-0.016360	0.000000	0.000013	0.000002	0.000000	0.000000
11.606371	11.889867	22.057575	0.027907	0.196638	2.547647	0.000000	-0.016360	0.000000	0.000014	0.000002	0.000000	0.000000
12.086371	11.882469	21.879652	-0.012495	0.174036	2.539794	0.000000	-0.016360	0.000000	0.000014	0.000002	0.000000	0.000000
12.566371	11.913857	21.723427	-0.052897	0.151433	2.531940	0.000000	-0.016360	0.000000	0.000015	0.000002	0.000000	0.000000
13.046371	11.984031	21.588900	-0.093299	0.128830	2.524087	0.000000	-0.016360	0.000000	0.000016	0.000002	0.000000	0.000000
13.526371	12.092990	21.476072	-0.133701	0.106228	2.516233	0.000000	-0.016360	0.000000	0.000017	0.000002	0.000000	0.000000
14.007621	12.241171	21.384734	-0.174208	0.083566	2.508359	0.000000	-0.016360	0.000000	0.000017	0.000002	0.000000	0.000000
14.304943	12.352204	21.339204	-0.168948	0.017245	2.503495	0.000000	-0.022498	0.000000	0.000018	0.000001	0.000000	0.000000
14.745903	12.659672	21.090462	-0.530966	0.544701	2.509200	0.000000	0.048404	0.000000	0.000019	0.000002	0.000000	0.000000
15.186863	13.295860	20.385739	-0.917242	1.047374	2.546263	0.000000	0.119858	0.000000	0.000020	0.000002	0.000000	0.000000
15.627823	14.289836	19.257099	-1.345425	1.502392	2.615104	0.000000	0.192677	0.000000	0.000021	0.000003	0.000000	0.000000
16.068783	15.687011	17.755895	-1.835077	1.889052	2.716508	0.000000	0.267690	0.000000	0.000022	0.000003	0.000000	0.000000
16.514743	17.574882	15.928932	-2.413326	2.190503	2.853323	0.000000	0.346214	0.000000	0.000024	0.000004	0.000000	0.000000
17.063803	19.999723	13.889059	-1.976876	1.546635	3.019693	0.000000	0.258918	0.000000	0.000026	0.000003	0.000000	0.000000
17.612863	21.865309	12.491951	-1.400789	1.012930	3.136800	0.000000	0.167030	0.000000	0.000027	0.000002	0.000000	0.000000
18.161923	23.039865	11.638095	-0.725758	0.551373	3.202565	0.000000	0.072179	0.000000	0.000029	0.000002	0.000000	0.000000
18.710983	23.440426	11.266672	0.000538	0.129090	3.215824	0.000000	-0.023953	0.000000	0.000029	0.000001	0.000000	0.000000
19.009556	23.480485	11.180123	-0.073477	0.131354	3.211180	0.000000	-0.015552	0.000000	0.000029	0.000001	0.000000	0.000000
19.342889	23.534228	11.102664	-0.087750	0.101025	3.205996	0.000000	-0.015552	0.000000	0.000030	0.000001	0.000000	0.000000
19.676223	23.597485	11.045424	-0.102023	0.070696	3.200811	0.000000	-0.015552	0.000000	0.000030	0.000001	0.000000	0.000000
20.010806	23.670842	11.008166	-0.233628	0.094794	3.195627	0.000000	0.000281	0.000000	0.000030	0.000001	0.000000	0.000000
20.308129	23.813706	10.959900	-0.309079	0.096171	3.195710	0.000000	0.008628	0.000000	0.000030	0.000001	0.000000	0.000000
20.857189	23.742370	11.076130	0.438234	-0.309109	3.174240	0.000000	-0.086718	0.000000	0.000030	-0.000000	0.000000	0.000000
21.406249	22.862604	11.646812	1.154593	-0.736407	3.100766	0.000000	-0.180527	0.000000	0.000030	-0.000001	0.000000	0.000000
21.955309	21.236550	12.712596	1.789396	-1.216157	2.976589	0.000000	-0.271133	0.000000	0.000029	-0.000002	0.000000	0.000000
22.504369	18.979066	14.349395	2.297806	-1.782531	2.803914	0.000000	-0.356931	0.000000	0.000028	-0.000003	0.000000	0.000000
22.950329	17.199840	15.819075	1.705928	-1.499107	2.662024	0.000000	-0.279754	0.000000	0.000027	-0.000002	0.000000	0.000000
23.391289	15.924740	16.990946	1.196686	-1.148326	2.554980	0.000000	-0.206218	0.000000	0.000026	-0.000002	0.000000	0.000000
23.832249	15.073036	17.829148	0.742117	-0.745296	2.479813	0.000000	-0.135031	0.000000	0.000025	-0.000001	0.000000	0.000000
24.273209	14.605816	18.295542	0.321454	-0.308357	2.435669	0.000000	-0.065381	0.000000	0.000025	-0.000000	0.000000	0.000000
24.715418	14.501857	18.368664	-0.049056	0.097508	2.422040	0.000000	-0.002415	0.000000	0.000025	0.000000	0.000000	0.000000
25.012741	14.537138	18.315539	-0.069608	0.081168	2.421322	0.000000	-0.002415	0.000000	0.000025	0.000000	0.000000	0.000000
25.346075	14.591223	18.267533	-0.092648	0.062849	2.420517	0.000000	-0.002415	0.000000	0.000025	0.000000	0.000000	0.000000
25.679408	14.660669	18.231741	-0.115689	0.044529	2.419712	0.000000	-0.002415	0.000000	0.000025	0.000000	0.000000	0.000000
26.013991	14.745523	18.208465	-0.019191	-0.121575	2.418879	0.000000	-0.022038	0.000000	0.000025	0.000000	0.000000	0.000000
26.311314	14.762933	18.285685	-0.003168	-0.182976	2.412327	0.000000	-0.027953	0.000000	0.000026	0.000000	0.000000	0.000000
26.752274	14.947589	18.248781	-0.417179	0.266348	2.415104	0.000000	0.040562	0.000000	0.000026	0.000001	0.000000	0.000000
27.193234	15.504362	17.819459	-0.850250	0.703554	2.448166	0.000000	0.109538	0.000000	0.000026	0.000001	0.000000	0.000000
27.634194	16.458690	17.017254	-1.322166	1.108748	2.511889	0.000000	0.179762	0.000000	0.000027	0.000002	0.000000	0.000000
28.075154	17.854175	15.878665	-1.854488	1.463495	2.607000	0.000000	0.252033	0.000000	0.000028	0.000003	0.000000	0.000000
28.521114	19.778810	14.438341	-2.476511	1.752565	2.736184	0.000000	0.327618	0.000000	0.000029	0.000004	0.000000	0.000000
29.070174	22.225012	12.833653	-1.952367	1.187295	2.893413	0.000000	0.244266	0.000000	0.000031	0.000003	0.000000	0.000000
29.619234	24.016044	11.799897	-1.290317	0.706592	3.003618	0.000000	0.156581	0.000000	0.000032	0.000002	0.000000	0.000000
30.168294	25.025395	11.263441	-0.537125	0.276219	3.064846	0.000000	0.066118	0.000000	0.000033	0.000000	0.000000	0.000000
30.717354	25.181771	11.186074	0.254006	-0.134480	3.076008	0.000000	-0.025517	0.000000	0.000033	-0.000001	0.000000	0.000000
31.015927	25.073036	11.256988	0.175952	-0.132248	3.070789	0.000000	-0.017482	0.000000	0.000033	-0.000001	0.000000	0.000000
31.349260	24.960304	11.355196	0.162246	-0.162377	3.064962	0.000000	-0.017482	0.000000	0.000032	-0.000001	0.000000	0.000000
31.682593	24.856708	11.473491	0.148540	-0.192506	3.059134	0.000000	-0.017482	0.000000	0.000032	-0.000001	0.000000	0.000000
32.017177	24.761913	11.612428	0.134782	-0.222748	3.053285	0.000000	-0.017482	0.000000	0.000032	-0.000001	0.000000	0.000000
32.314499	24.685401	11.752875	0.058076	-0.218923	3.048088	0.000000	-0.009520	0.000000	0.000032	-0.000000	0.000000	0.000000
32.863559	24.198646	12.232445	0.823198	-0.659671	3.017993	0.000000	-0.099944	0.000000	0.000031	-0.000001	0.000000	0.000000
33.412619	22.898808	13.218816	1.530174	-1.147405	2.938664	0.000000	-0.188595	0.000000	0.000030	-0.000002	0.000000	0.000000
33.961679	20.877700	14.782246	2.129066	-1.716867	2.811510	0.000000	-0.273901	0.000000	0.000029	-0.000003	0.000000	0.000000
34.510739	18.278083	17.034094	2.577571	-2.408618	2.638784	0.000000	-0.354349	0.000000	0.000027	-0.000004	0.000000	0.000000
34.956699	16.256710	19.048330	1.971298	-2.089154	2.497094	0.000000	-0.281453	0.000000	0.000025	-0.000004	0.000000	0.000000
35.397659	14.749314	20.714680	1.460110	-1.675378	2.388361	0.000000	-0.212190	0.000000	0.000023	-0.000003	0.000000	0.000000
35.838619	13.661736	21.980976	1.015630	-1.185373	2.309607	0.000000	-0.145345	0.000000	0.000022	-0.000002	0.000000	0.000000
36.279579	12.944290	22.789602	0.617551	-0.641435	2.259937	0.000000	-0.080155	0.000000	0.000021	-0.000002	0.000000	0.000000
36.721789	12.563501	23.104080	0.278384	-0.125012	2.238759	0.000000	-0.021366	0.000000	0.000020	-0.000001	0.000000	0.000000
37.019112	12.405542	23.182304	0.252885	-0.138082	2.232406	0.000000	-0.021366	0.000000	0.000020	-0.000001	0.000000	0.000000
37.352445	12.246482	23.279243	0.224297	-0.152735	2.225285	0.000000	-0.021366	0.000000	0.000020	-0.000001	0.000000	0.000000
37.685779	12.106480	23.385951	0.195709	-0.167388	2.218163	0.000000	-0.021366	0.000000	0.000019	-0.000001	0.000000	0.000000
38.020362	11.985119	23.502883	0.167013	-0.182096	2.211015	0.000000	-0.021366	0.000000	0.000019	-0.000001	0.000000	0.000000
38.317684	11.893387	23.615051	0.170675	-0.253068	2.204662	0.000000	-0.026772	0.000000	0.000018	-0.000001	0.000000	0.000000
38.758644	11.894455	23.576652	-0.173105	0.339817	2.206779	0.000000	0.036381	0.000000	0.000018	-0.000001	0.000000	0.000000
39.199604	12.201037	23.020223	-0.524793	0.917240	2.236809	0.000000	0.099947	0.000000	0.000017	-0.000001	0.000000	0.000000
39.640564	12.827140	21.971080	-0.900458	1.452930	2.295092	0.000000	0.164652	0.000000	0.000017	-0.000000	0.000000	0.000000
40.081524	13.801371	20.476959	-1.317262	1.922512	2.382294	0.000000	0.231233	0.000000	0.000017	0.000000	0.000000	0.000000
40.527484	15.185814	18.583260	-1.798077	2.305909	2.500879	0.000000	0.300852	0.000000	0.000018	0.000001	0.000000	0.000000
41.076544	16.952376	16.455124	-1.400305	1.592931	2.645543	0.000000	0.225327	0.000000	0.000018	0.000000	0.000000	0.000000
41.625604	18.224904	15.043399	-0.903624	0.993413	2.747580	0.000000	0.145805	0.000000	0.000018	-0.000000	0.000000	0.000000
42.174664	18.913515	14.247531	-0.343114	0.464653	2.805180	0.000000	0.063698	0.000000	0.000018	-0.000001	0.000000	0.000000
42.723724	18.969566	14.010832	0.241631	-0.031010	2.817322	0.000000	-0.019540	0.000000	0.000017	-0.000001	0.000000	0.000000
43.022297	18.859743	14.013855	0.175754	-0.015718	2.813685	0.000000	-0.012180	0.000000	0.000016	-0.000001	0.000000	0.000000
43.502297	18.703613	14.045389	0.149517	-0.049978	2.807840	0.000000	-0.012180	0.000000	0.000016	-0.000001	0.000000	0.000000
43.982297	18.572671	14.109813	0.123279	-0.084238	2.801994	0.000000	-0.012180	0.000000	0.000015	-0.000001	0.000000	0.000000
44.462297	18.466917	14.207127	0.097042	-0.118499	2.796149	0.000000	-0.012180	0.000000	0.000014	-0.000001	0.000000	0.000000
44.942297	18.386350	14.337330	0.070805	-0.152759	2.790303	0.000000	-0.012180	0.000000	0.000014	-0.000001	0.000000	0.000000
45.423547	18.331087	14.500712	-0.046323	-0.115263	2.784460	0.000000	0.001616	0.000000	0.000013	-0.000001	0.000000	0.000000
45.720870	18.363466	14.575429	-0.110553	-0.097961	2.784941	0.000000	0.008892	0.000000	0.000013	-0.000001	0.000000	0.000000
46.269930	18.175674	14.964824	0.450550	-0.615428	2.767259	0.000000	-0.073207	0.000000	0.000012	-0.000002	0.000000	0.000000
46.818990	17.385634	15.943052	0.979828	-1.176730	2.704791	0.000000	-0.154007	0.000000	0.000011	-0.000002	0.000000	0.000000
47.368050	16.049148	17.579790	1.439896	-1.821848	2.598645	0.000000	-0.232075	0.000000	0.000010	-0.000002	0.000000	0.000000
47.917110	14.260620	19.991620	1.798257	-2.596732	2.450703	0.000000	-0.306027	0.000000	0.000008	-0.000003	0.000000	0.000000
48.363070	12.868909	22.135840	1.333507	-2.191154	2.329517	0.000000	-0.237744	0.000000	0.000007	-0.000002	0.000000	0.000000
48.804030	11.873049	23.852553	0.933451	-1.687158	2.239140	0.000000	-0.172565	0.000000	0.000006	-0.000002	0.000000	0.000000
49.244990	11.209939	25.089105	0.576042	-1.106397	2.177043	0.000000	-0.109351	0.000000	0.000005	-0.000002	0.000000	0.000000
49.685950	10.849281	25.789233	0.244951	-0.475296	2.142520	0.000000	-0.047383	0.000000	0.000004	-0.000002	0.000000	0.000000
50.128160	10.774722	25.920796	-0.048643	0.113818	2.135188	0.000000	0.008809	0.000000	0.000003	-0.000002	0.000000	0.000000
50.425482	10.811871	25.856569	-0.076303	0.102199	2.137808	0.000000	0.008809	0.000000	0.000003	-0.000002	0.000000	0.000000
50.758816	10.873077	25.792779	-0.107313	0.089173	2.140745	0.000000	0.008809	0.000000	0.000002	-0.000002	0.000000	0.000000
51.092149	10.954955	25.737672	-0.138323	0.076147	2.143682	0.000000	0.008809	0.000000	0.000001	-0.000002	0.000000	0.000000
51.426732	11.057706	25.691613	-0.079742	-0.145351	2.146608	0.000000	-0.008606	0.000000	0.000001	-0.000002	0.000000	0.000000
51.724055	11.113169	25.781559	-0.079548	-0.220393	2.144050	0.000000	-0.013863	0.000000	-0.000000	-0.000002	0.000000	0.000000
52.165015	11.328464	25.689069	-0.410545	0.429341	2.151525	0.000000	0.047795	0.000000	-0.000001	-0.000002	0.000000	0.000000
52.605975	11.842808	25.030024	-0.760299	1.059541	2.186283	0.000000	0.109999	0.000000	-0.000002	-0.000002	0.000000	0.000000
53.046935	12.679700	23.834410	-1.144789	1.641532	2.248720	0.000000	0.173455	0.000000	-0.000003	-0.000002	0.000000	0.000000
53.487895	13.877375	22.156625	-1.581580	2.148835	2.339548	0.000000	0.238886	0.000000	-0.000004	-0.000002	0.000000	0.000000
53.933855	15.511088	20.047926	-2.094853	2.559707	2.461305	0.000000	0.307437	0.000000	-0.000005	-0.000002	0.000000	0.000000
54.482915	17.614521	17.675022	-1.713443	1.787562	2.609927	0.000000	0.233131	0.000000	-0.000006	-0.000002	0.000000	0.000000
55.031975	19.229778	16.075551	-1.211004	1.142741	2.716553	0.000000	0.154689	0.000000	-0.000007	-0.000002	0.000000	0.000000
55.581035	20.242766	15.135587	-0.623025	0.579315	2.779292	0.000000	0.073504	0.000000	-0.000008	-0.000002	0.000000	0.000000
56.130095	20.581932	14.788178	0.008960	0.057153	2.797031	0.000000	-0.008986	0.000000	-0.000009	-0.000001	0.000000	0.000000
56.428668	20.613037	14.737058	-0.059356	0.075420	2.796531	0.000000	-0.001677	0.000000	-0.000009	-0.000001	0.000000	0.000000
56.762001	20.658017	14.694361	-0.075584	0.052672	2.795972	0.000000	-0.001677	0.000000	-0.000010	-0.000001	0.000000	0.000000
57.095334	20.713816	14.666829	-0.091812	0.029925	2.795414	0.000000	-0.001677	0.000000	-0.000010	-0.000001	0.000000	0.000000
57.429918	20.780703	14.654443	-0.108101	0.007092	2.794853	0.000000	-0.001677	0.000000	-0.000011	-0.000001	0.000000	0.000000
57.727240	20.849289	14.656259	-0.177056	0.025100	2.794355	0.000000	0.005625	0.000000	-0.000011	-0.000001	0.000000	0.000000
58.276300	20.688074	14.910057	0.468938	-0.490069	2.774801	0.000000	-0.076749	0.000000	-0.000012	-0.000001	0.000000	0.000000
58.825360	19.831550	15.745305	1.081809	-1.040144	2.710327	0.000000	-0.157760	0.000000	-0.000012	-0.000001	0.000000	0.000000
59.374420	18.340219	17.221497	1.618266	-1.664307	2.602076	0.000000	-0.235974	0.000000	-0.000013	-0.000000	0.000000	0.000000
59.923480	16.319420	19.443779	2.040417	-2.407014	2.451968	0.000000	-0.310002	0.000000	-0.000013	0.000000	0.000000	0.000000
60.369440	14.737814	21.418903	1.518662	-2.003216	2.329012	0.000000	-0.241709	0.000000	-0.000013	-0.000000	0.000000	0.000000
60.810400	13.600419	22.973854	1.070487	-1.509652	2.236879	0.000000	-0.176566	0.000000	-0.000013	-0.000001	0.000000	0.000000
61.251360	12.835299	24.061455	0.671219	-0.947400	2.173001	0.000000	-0.113434	0.000000	-0.000013	-0.000001	0.000000	0.000000
61.692320	12.407498	24.632219	0.302618	-0.342042	2.136650	0.000000	-0.051593	0.000000	-0.000014	-0.000001	0.000000	0.000000
62.134530	12.297528	24.659633	-0.022099	0.218343	2.127420	0.000000	0.004441	0.000000	-0.000014	-0.000002	0.000000	0.000000
62.431853	12.317861	24.533551	-0.046288	0.205712	2.128741	0.000000	0.004441	0.000000	-0.000015	-0.000002	0.000000	0.000000
62.765186	12.357759	24.401131	-0.073407	0.191550	2.130222	0.000000	0.004441	0.000000	-0.000015	-0.000002	0.000000	0.000000
63.098520	12.415736	24.278152	-0.100526	0.177388	2.131703	0.000000	0.004441	0.000000	-0.000016	-0.000002	0.000000	0.000000
63.433103	12.492112	24.164206	-0.127746	0.163173	2.133189	0.000000	0.004441	0.000000	-0.000016	-0.000002	0.000000	0.000000
63.730426	12.575268	24.070931	-0.121092	0.091502	2.134510	0.000000	-0.000794	0.000000	-0.000017	-0.000001	0.000000	0.000000
64.171386	12.842254	23.725159	-0.486670	0.689648	2.147705	0.000000	0.060693	0.000000	-0.000017	-0.000002	0.000000	0.000000
64.612346	13.440199	22.863745	-0.874482	1.256416	2.188139	0.000000	0.122871	0.000000	-0.000018	-0.000002	0.000000	0.000000
65.053306	14.396421	21.525882	-1.302247	1.766018	2.256274	0.000000	0.186448	0.000000	-0.000019	-0.000003	0.000000	0.000000
65.494266	15.754608	19.772442	-1.789508	2.195267	2.352885	0.000000	0.252149	0.000000	-0.000021	-0.000003	0.000000	0.000000
65.940226	17.599974	17.658403	-2.363217	2.525383	2.480647	0.000000	0.321123	0.000000	-0.000022	-0.000004	0.000000	0.000000
66.489286	19.965751	15.293547	-1.920056	1.807141	2.636590	0.000000	0.246072	0.000000	-0.000024	-0.000003	0.000000	0.000000
67.038346	21.767078	13.642519	-1.341273	1.217618	2.750064	0.000000	0.166655	0.000000	-0.000026	-0.000002	0.000000	0.000000
67.587406	22.876718	12.587720	-0.667749	0.714823	2.819057	0.000000	0.084282	0.000000	-0.000027	-0.000002	0.000000	0.000000
68.136466	23.216294	12.054017	0.052942	0.262944	2.842344	0.000000	0.000415	0.000000	-0.000028	-0.000001	0.000000	0.000000
68.435038	23.224751	11.886227	-0.020593	0.267529	2.844686	0.000000	0.007843	0.000000	-0.000028	-0.000001	0.000000	0.000000
68.768372	23.243266	11.717891	-0.034952	0.237478	2.847300	0.000000	0.007843	0.000000	-0.000028	-0.000001	0.000000	0.000000
69.101705	23.271353	11.569589	-0.049310	0.207427	2.849915	0.000000	0.007843	0.000000	-0.000028	-0.000001	0.000000	0.000000
69.436288	23.309172	11.440878	-0.063723	0.177264	2.852539	0.000000	0.007843	0.000000	-0.000029	-0.000001	0.000000	0.000000
69.733611	23.350872	11.343439	-0.137556	0.180105	2.854871	0.000000	0.015304	0.000000	-0.000029	-0.000001	0.000000	0.000000
70.282671	23.100872	11.372913	0.590186	-0.234104	2.840079	0.000000	-0.069107	0.000000	-0.000029	0.000000	0.000000	0.000000
