#ParticleID	Turn	x[m]	xp	y[m]	yp	z[m]	dE[GeV]# s	beta_x	beta_y	alpha_x	alpha_y	D_x	D_y	D_px	D_py	orbit_x	orbit_px	orbit_y	orbit_py
0.300000	11.810702	25.031715	-0.010672	-0.027148	2.618084	0.000000	0.000024	0.000000	-0.000002	0.000001	0.000000	0.000000
0.601250	11.824817	25.051700	-0.036182	-0.039192	2.618091	0.000000	0.000024	0.000000	-0.000001	0.000001	0.000000	0.000000
0.898573	11.853818	25.078539	-0.032289	-0.112578	2.618098	0.000000	-0.006396	0.000000	-0.000001	0.000001	0.000000	0.000000
1.339533	12.034386	24.899628	-0.378752	0.516765	2.631570	0.000000	0.067561	0.000000	-0.000000	0.000001	0.000000	0.000000
1.780493	12.526953	24.173974	-0.742519	1.122596	2.677793	0.000000	0.142287	0.000000	0.000001	0.000001	0.000000	0.000000
2.221453	13.354023	22.934593	-1.140209	1.677350	2.757292	0.000000	0.218634	0.000000	0.000001	0.000001	0.000000	0.000000
2.662413	14.553383	21.237878	-1.589993	2.155785	2.870974	0.000000	0.297471	0.000000	0.000002	0.000001	0.000000	0.000000
3.108373	16.200564	19.136144	-2.116706	2.537267	3.021995	0.000000	0.380186	0.000000	0.000003	0.000002	0.000000	0.000000
3.657433	18.312809	16.775566	-1.707541	1.787417	3.205467	0.000000	0.287147	0.000000	0.000003	0.000001	0.000000	0.000000
4.206493	19.906449	15.164089	-1.177764	1.164881	3.336380	0.000000	0.189016	0.000000	0.000004	0.000001	0.000000	0.000000
4.755553	20.868917	14.186931	-0.564796	0.625317	3.412412	0.000000	0.087532	0.000000	0.000005	0.000001	0.000000	0.000000
5.304613	21.132229	13.774490	0.088067	0.130293	3.432215	0.000000	-0.015505	0.000000	0.000005	0.000001	0.000000	0.000000
5.603185	21.116833	13.681847	0.018711	0.144006	3.430262	0.000000	-0.006537	0.000000	0.000006	0.000001	0.000000	0.000000
5.936519	21.109623	13.594133	0.002920	0.119138	3.428083	0.000000	-0.006537	0.000000	0.000006	0.000001	0.000000	0.000000
6.269852	21.112939	13.522997	-0.012871	0.094269	3.425904	0.000000	-0.006537	0.000000	0.000006	0.000001	0.000000	0.000000
6.604435	21.126855	13.468267	-0.028720	0.069307	3.423716	0.000000	-0.006537	0.000000	0.000007	0.000001	0.000000	0.000000
6.901758	21.148121	13.433649	-0.098058	0.082223	3.421772	0.000000	0.002403	0.000000	0.000007	0.000001	0.000000	0.000000
7.450818	20.895387	13.604228	0.555637	-0.394731	3.394889	0.000000	-0.100181	0.000000	0.000008	0.000001	0.000000	0.000000
7.999878	19.942219	14.310833	1.170086	-0.899802	3.312087	0.000000	-0.200988	0.000000	0.000008	0.000001	0.000000	0.000000
8.548938	18.355945	15.603796	1.701885	-1.468963	3.174834	0.000000	-0.298229	0.000000	0.000008	0.000000	0.000000	0.000000
9.097998	16.248611	17.575210	2.113471	-2.142756	2.985567	0.000000	-0.390181	0.000000	0.000008	0.000000	0.000000	0.000000
9.543958	14.604527	19.331826	1.586253	-1.779551	2.829869	0.000000	-0.308472	0.000000	0.000008	0.000000	0.000000	0.000000
9.984918	13.408750	20.711179	1.135793	-1.336612	2.711092	0.000000	-0.230760	0.000000	0.000009	0.000000	0.000000	0.000000
10.425878	12.585946	21.671483	0.737224	-0.832858	2.625971	0.000000	-0.155677	0.000000	0.000009	0.000001	0.000000	0.000000
10.866838	12.098523	22.169045	0.372337	-0.291210	2.573536	0.000000	-0.082366	0.000000	0.000009	0.000001	0.000000	0.000000
11.309048	11.924079	22.180705	0.053595	0.209238	2.553171	0.000000	-0.016255	0.000000	0.000010	0.000001	0.000000	0.000000
11.606371	11.899644	22.060442	0.028588	0.195247	2.548338	0.000000	-0.016255	0.000000	0.000010	0.000001	0.000000	0.000000
12.086371	11.891577	21.883847	-0.011782	0.172659	2.540535	0.000000	-0.016255	0.000000	0.000011	0.000001	0.000000	0.000000
12.566371	11.922265	21.728937	-0.052152	0.150071	2.532732	0.000000	-0.016255	0.000000	0.000011	0.000001	0.000000	0.000000
13.046371	11.991709	21.595711	-0.092523	0.127483	2.524930	0.000000	-0.016255	0.000000	0.000012	0.000001	0.000000	0.000000
13.526371	12.099909	21.484169	-0.132893	0.104895	2.517127	0.000000	-0.016255	0.000000	0.000012	0.000001	0.000000	0.000000
14.007621	12.247297	21.394106	-0.173368	0.082249	2.509304	0.000000	-0.016255	0.000000	0.000013	0.000001	0.000000	0.000000
14.304943	12.357825	21.349357	-0.168073	0.015909	2.504470	0.000000	-0.022396	0.000000	0.000013	0.000001	0.000000	0.000000
14.745903	12.664567	21.101663	-0.530190	0.543667	2.510227	0.000000	0.048533	0.000000	0.000014	0.000001	0.000000	0.000000
15.186863	13.300103	20.397701	-0.916530	1.046689	2.547352	0.000000	0.120014	0.000000	0.000014	0.000002	0.000000	0.000000
15.627823	14.293466	19.269499	-1.344743	1.502087	2.616268	0.000000	0.192861	0.000000	0.000015	0.000002	0.000000	0.000000
16.068783	15.690041	17.768391	-1.834394	1.889141	2.717761	0.000000	0.267906	0.000000	0.000016	0.000003	0.000000	0.000000
16.514743	17.577292	15.941172	-2.412612	2.190985	2.854680	0.000000	0.346464	0.000000	0.000018	0.000003	0.000000	0.000000
17.063803	20.001239	13.900938	-1.975975	1.546816	3.021175	0.000000	0.259122	0.000000	0.000019	0.000002	0.000000	0.000000
17.612863	21.865761	12.503788	-1.399765	1.012824	3.138380	0.000000	0.167184	0.000000	0.000020	0.000002	0.000000	0.000000
18.161923	23.039156	11.650209	-0.724682	0.550972	3.204216	0.000000	0.072280	0.000000	0.000021	0.000001	0.000000	0.000000
18.710983	23.438542	11.279401	0.001589	0.128365	3.217516	0.000000	-0.023905	0.000000	0.000022	0.000000	0.000000	0.000000
19.009556	23.477974	11.193253	-0.072425	0.130701	3.212888	0.000000	-0.015500	0.000000	0.000022	0.000001	0.000000	0.000000
19.342889	23.531014	11.116215	-0.086697	0.100412	3.207721	0.000000	-0.015500	0.000000	0.000022	0.000001	0.000000	0.000000
19.676223	23.593570	11.059370	-0.100969	0.070124	3.202554	0.000000	-0.015500	0.000000	0.000022	0.000001	0.000000	0.000000
20.010806	23.666221	11.022481	-0.232550	0.094334	3.197388	0.000000	0.000342	0.000000	0.000022	0.000001	0.000000	0.000000
20.308129	23.808443	10.974477	-0.307988	0.095789	3.197489	0.000000	0.008695	0.000000	0.000022	0.000001	0.000000	0.000000
20.857189	23.736011	11.091353	0.439128	-0.309909	3.176040	0.000000	-0.086710	0.000000	0.000023	-0.000000	0.000000	0.000000
21.406249	22.855402	11.663167	1.155226	-0.737681	3.102553	0.000000	-0.180577	0.000000	0.000022	-0.000001	0.000000	0.000000
21.955309	21.228818	12.730651	1.789725	-1.217996	2.978334	0.000000	-0.271240	0.000000	0.000022	-0.000001	0.000000	0.000000
22.504369	18.971153	14.369838	2.297806	-1.785067	2.805584	0.000000	-0.357093	0.000000	0.000021	-0.000002	0.000000	0.000000
22.950329	17.191862	15.841568	1.706073	-1.501151	2.663631	0.000000	-0.279874	0.000000	0.000020	-0.000002	0.000000	0.000000
23.391289	15.916568	17.014991	1.196982	-1.149787	2.556543	0.000000	-0.206297	0.000000	0.000019	-0.000001	0.000000	0.000000
23.832249	15.064532	17.854199	0.742578	-0.746109	2.481350	0.000000	-0.135070	0.000000	0.000019	-0.000001	0.000000	0.000000
24.273209	14.596825	18.321008	0.322101	-0.308483	2.437197	0.000000	-0.065381	0.000000	0.000019	-0.000000	0.000000	0.000000
24.715418	14.492201	18.393935	-0.048215	0.098010	2.423577	0.000000	-0.002379	0.000000	0.000019	0.000000	0.000000	0.000000
25.012741	14.526986	18.340506	-0.068779	0.081690	2.422870	0.000000	-0.002379	0.000000	0.000019	0.000000	0.000000	0.000000
25.346075	14.580523	18.292145	-0.091833	0.063394	2.422077	0.000000	-0.002379	0.000000	0.000019	0.000000	0.000000	0.000000
25.679408	14.649430	18.255980	-0.114888	0.045098	2.421284	0.000000	-0.002379	0.000000	0.000019	0.000000	0.000000	0.000000
26.013991	14.733752	18.232317	-0.018499	-0.121176	2.420463	0.000000	-0.022015	0.000000	0.000019	0.000000	0.000000	0.000000
26.311314	14.750755	18.309293	-0.002518	-0.182615	2.413918	0.000000	-0.027934	0.000000	0.000019	0.000000	0.000000	0.000000
26.752274	14.934705	18.271788	-0.416223	0.267343	2.416712	0.000000	0.040622	0.000000	0.000019	0.000001	0.000000	0.000000
27.193234	15.490484	17.841326	-0.848943	0.705137	2.449810	0.000000	0.109640	0.000000	0.000020	0.000001	0.000000	0.000000
27.634194	16.443484	17.037491	-1.320449	1.110847	2.513588	0.000000	0.179907	0.000000	0.000020	0.000002	0.000000	0.000000
28.075154	17.837245	15.896857	-1.852282	1.466015	2.608773	0.000000	0.252223	0.000000	0.000021	0.000002	0.000000	0.000000
28.521114	19.759656	14.454139	-2.473711	1.755392	2.738052	0.000000	0.327855	0.000000	0.000022	0.000003	0.000000	0.000000
29.070174	22.203051	12.846707	-1.950087	1.189496	2.895394	0.000000	0.244440	0.000000	0.000023	0.000002	0.000000	0.000000
29.619234	23.991941	11.810803	-1.288719	0.708326	3.005678	0.000000	0.156690	0.000000	0.000024	0.000001	0.000000	0.000000
30.168294	24.999965	11.272642	-0.536322	0.277609	3.066947	0.000000	0.066160	0.000000	0.000025	0.000000	0.000000	0.000000
30.717354	25.155923	11.193892	0.253958	-0.133335	3.078114	0.000000	-0.025543	0.000000	0.000025	-0.000000	0.000000	0.000000
31.015927	25.047183	11.264101	0.175955	-0.131056	3.072888	0.000000	-0.017502	0.000000	0.000024	-0.000000	0.000000	0.000000
31.349260	24.934453	11.361505	0.162234	-0.161156	3.067054	0.000000	-0.017502	0.000000	0.000024	-0.000000	0.000000	0.000000
31.682593	24.830870	11.478976	0.148514	-0.191257	3.061220	0.000000	-0.017502	0.000000	0.000024	-0.000000	0.000000	0.000000
32.017177	24.736098	11.617068	0.134742	-0.221471	3.055364	0.000000	-0.017502	0.000000	0.000024	-0.000000	0.000000	0.000000
32.314499	24.659612	11.756747	0.058086	-0.217608	3.050160	0.000000	-0.009535	0.000000	0.000024	-0.000000	0.000000	0.000000
32.863559	24.173315	12.234901	0.822361	-0.658392	3.020039	0.000000	-0.100025	0.000000	0.000024	-0.000001	0.000000	0.000000
33.412619	22.874837	13.219846	1.528548	-1.146071	2.940648	0.000000	-0.188741	0.000000	0.000023	-0.000002	0.000000	0.000000
33.961679	20.855899	14.781738	2.126765	-1.715383	2.813395	0.000000	-0.274110	0.000000	0.000022	-0.000003	0.000000	0.000000
34.510739	18.259106	17.031826	2.574759	-2.406878	2.640538	0.000000	-0.354617	0.000000	0.000020	-0.000003	0.000000	0.000000
34.956699	16.239969	19.044462	1.969079	-2.087319	2.498738	0.000000	-0.281677	0.000000	0.000019	-0.000003	0.000000	0.000000
35.397659	14.734309	20.709182	1.458377	-1.673533	2.389915	0.000000	-0.212373	0.000000	0.000018	-0.000002	0.000000	0.000000
35.838619	13.648076	21.973877	1.014304	-1.183602	2.311089	0.000000	-0.145488	0.000000	0.000017	-0.000002	0.000000	0.000000
36.279579	12.931643	22.781005	0.616571	-0.639819	2.261364	0.000000	-0.080261	0.000000	0.000016	-0.000001	0.000000	0.000000
36.721789	12.551583	23.094149	0.277679	-0.123603	2.240146	0.000000	-0.021440	0.000000	0.000015	-0.000001	0.000000	0.000000
37.019112	12.394049	23.171535	0.252164	-0.136674	2.233772	0.000000	-0.021440	0.000000	0.000015	-0.000001	0.000000	0.000000
37.352445	12.235475	23.267536	0.223559	-0.151328	2.226625	0.000000	-0.021440	0.000000	0.000015	-0.000001	0.000000	0.000000
37.685779	12.095970	23.373306	0.194955	-0.165982	2.219479	0.000000	-0.021440	0.000000	0.000015	-0.000001	0.000000	0.000000
38.020362	11.975120	23.489298	0.166242	-0.180692	2.212306	0.000000	-0.021440	0.000000	0.000014	-0.000001	0.000000	0.000000
38.317684	11.883850	23.600632	0.169867	-0.251631	2.205932	0.000000	-0.026849	0.000000	0.000014	-0.000001	0.000000	0.000000
38.758644	11.885536	23.561139	-0.173704	0.340852	2.208022	0.000000	0.036336	0.000000	0.000013	-0.000001	0.000000	0.000000
39.199604	12.192564	23.003992	-0.525211	0.917826	2.238039	0.000000	0.099935	0.000000	0.000013	-0.000000	0.000000	0.000000
39.640564	12.818963	21.954541	-0.900713	1.453040	2.296323	0.000000	0.164671	0.000000	0.000013	-0.000000	0.000000	0.000000
40.081524	13.793351	20.460536	-1.317366	1.922142	2.383541	0.000000	0.231284	0.000000	0.000013	0.000000	0.000000	0.000000
40.527484	15.177822	18.567378	-1.798034	2.305072	2.502155	0.000000	0.300935	0.000000	0.000013	0.000001	0.000000	0.000000
41.076544	16.944519	16.439914	-1.400594	1.592536	2.646854	0.000000	0.225369	0.000000	0.000014	0.000000	0.000000	0.000000
41.625604	18.217537	15.028395	-0.904223	0.993432	2.748903	0.000000	0.145805	0.000000	0.000014	-0.000000	0.000000	0.000000
42.174664	18.906958	14.232279	-0.343982	0.465088	2.806490	0.000000	0.063654	0.000000	0.000013	-0.000001	0.000000	0.000000
42.723724	18.964083	13.994861	0.240556	-0.030128	2.818596	0.000000	-0.019625	0.000000	0.000013	-0.000001	0.000000	0.000000
43.022297	18.854893	13.997389	0.174693	-0.014902	2.814935	0.000000	-0.012261	0.000000	0.000013	-0.000001	0.000000	0.000000
43.502297	18.699781	14.028159	0.148459	-0.049201	2.809050	0.000000	-0.012261	0.000000	0.000012	-0.000001	0.000000	0.000000
43.982297	18.569853	14.091856	0.122224	-0.083501	2.803165	0.000000	-0.012261	0.000000	0.000012	-0.000001	0.000000	0.000000
44.462297	18.465110	14.188481	0.095990	-0.117801	2.797280	0.000000	-0.012261	0.000000	0.000011	-0.000001	0.000000	0.000000
44.942297	18.385553	14.318033	0.069755	-0.152100	2.791395	0.000000	-0.012261	0.000000	0.000011	-0.000001	0.000000	0.000000
45.423547	18.331299	14.480800	-0.047371	-0.114743	2.785512	0.000000	0.001540	0.000000	0.000010	-0.000001	0.000000	0.000000
45.720870	18.364301	14.555216	-0.111605	-0.097518	2.785970	0.000000	0.008818	0.000000	0.000010	-0.000001	0.000000	0.000000
46.269930	18.177641	14.943787	0.449556	-0.614360	2.768239	0.000000	-0.073313	0.000000	0.000009	-0.000001	0.000000	0.000000
46.818990	17.388628	15.920467	0.978962	-1.174961	2.705704	0.000000	-0.154144	0.000000	0.000009	-0.000002	0.000000	0.000000
47.368050	16.052994	17.554823	1.439220	-1.819253	2.599475	0.000000	-0.232240	0.000000	0.000008	-0.000002	0.000000	0.000000
47.917110	14.265082	19.963267	1.797818	-2.593125	2.451435	0.000000	-0.306218	0.000000	0.000007	-0.000002	0.000000	0.000000
48.363070	12.873777	22.104545	1.333032	-2.188192	2.330168	0.000000	-0.237916	0.000000	0.000006	-0.000002	0.000000	0.000000
48.804030	11.878359	23.818980	0.932919	-1.684973	2.239717	0.000000	-0.172722	0.000000	0.000005	-0.000002	0.000000	0.000000
49.244990	11.215751	25.053985	0.575429	-1.105088	2.177554	0.000000	-0.109494	0.000000	0.000004	-0.000002	0.000000	0.000000
49.685950	10.855681	25.753369	0.244228	-0.474923	2.142971	0.000000	-0.047514	0.000000	0.000003	-0.000002	0.000000	0.000000
50.128160	10.781822	25.885026	-0.049492	0.113325	2.135584	0.000000	0.008689	0.000000	0.000003	-0.000001	0.000000	0.000000
50.425482	10.819471	25.821097	-0.077136	0.101691	2.138167	0.000000	0.008689	0.000000	0.000002	-0.000001	0.000000	0.000000
50.758816	10.881226	25.757650	-0.108128	0.088648	2.141064	0.000000	0.008689	0.000000	0.000002	-0.000001	0.000000	0.000000
51.092149	10.963641	25.702899	-0.139120	0.075606	2.143961	0.000000	0.008689	0.000000	0.000001	-0.000001	0.000000	0.000000
51.426732	11.066920	25.657207	-0.080446	-0.145630	2.146847	0.000000	-0.008728	0.000000	0.000001	-0.000001	0.000000	0.000000
51.724055	11.122796	25.747324	-0.080209	-0.220604	2.144252	0.000000	-0.013986	0.000000	0.000000	-0.000001	0.000000	0.000000
52.165015	11.338774	25.655419	-0.411441	0.428230	2.151674	0.000000	0.047677	0.000000	-0.000000	-0.000001	0.000000	0.000000
52.605975	11.854027	24.997734	-0.761471	1.057580	2.186381	0.000000	0.109884	0.000000	-0.000001	-0.000002	0.000000	0.000000
53.046935	12.692093	23.804192	-1.146290	1.638811	2.248767	0.000000	0.173341	0.000000	-0.000002	-0.000002	0.000000	0.000000
53.487895	13.891262	22.129099	-1.583479	2.145477	2.339545	0.000000	0.238774	0.000000	-0.000002	-0.000002	0.000000	0.000000
53.933855	15.526879	20.023624	-2.097240	2.555864	2.461251	0.000000	0.307324	0.000000	-0.000003	-0.000002	0.000000	0.000000
54.482915	17.632712	17.654398	-1.715399	1.784666	2.609811	0.000000	0.233020	0.000000	-0.000004	-0.000002	0.000000	0.000000
55.031975	19.249816	16.057684	-1.212391	1.140587	2.716378	0.000000	0.154583	0.000000	-0.000005	-0.000001	0.000000	0.000000
55.581035	20.263968	15.119751	-0.623745	0.577749	2.779060	0.000000	0.073404	0.000000	-0.000005	-0.000001	0.000000	0.000000
56.130095	20.603532	14.773793	0.008959	0.056062	2.796746	0.000000	-0.009077	0.000000	-0.000006	-0.000001	0.000000	0.000000
56.428668	20.634666	14.723352	-0.059398	0.074275	2.796219	0.000000	-0.001769	0.000000	-0.000006	-0.000001	0.000000	0.000000
56.762001	20.679668	14.681424	-0.075609	0.051510	2.795629	0.000000	-0.001769	0.000000	-0.000007	-0.000001	0.000000	0.000000
57.095334	20.735477	14.654672	-0.091820	0.028745	2.795040	0.000000	-0.001769	0.000000	-0.000007	-0.000001	0.000000	0.000000
57.429918	20.802364	14.643082	-0.108092	0.005895	2.794448	0.000000	-0.001769	0.000000	-0.000008	-0.000001	0.000000	0.000000
57.727240	20.870940	14.645613	-0.177087	0.023859	2.793923	0.000000	0.005531	0.000000	-0.000008	-0.000001	0.000000	0.000000
58.276300	20.709360	14.900614	0.469628	-0.491032	2.774322	0.000000	-0.076827	0.000000	-0.000008	-0.000001	0.000000	0.000000
58.825360	19.851703	15.736800	1.083171	-1.040898	2.709809	0.000000	-0.157823	0.000000	-0.000009	-0.000001	0.000000	0.000000
59.374420	18.358549	17.213731	1.620205	-1.664905	2.601528	0.000000	-0.236019	0.000000	-0.000009	-0.000000	0.000000	0.000000
59.923480	16.335366	19.436604	2.042795	-2.407500	2.451400	0.000000	-0.310029	0.000000	-0.000009	0.000000	0.000000	0.000000
60.369440	14.751865	21.412290	1.520549	-2.003987	2.328429	0.000000	-0.241751	0.000000	-0.000009	-0.000000	0.000000	0.000000
60.810400	13.612987	22.968033	1.071974	-1.510670	2.236274	0.000000	-0.176623	0.000000	-0.000009	-0.000000	0.000000	0.000000
61.251360	12.846706	24.056623	0.672374	-0.948618	2.172367	0.000000	-0.113507	0.000000	-0.000009	-0.000001	0.000000	0.000000
61.692320	12.418014	24.628530	0.303493	-0.343406	2.135981	0.000000	-0.051683	0.000000	-0.000010	-0.000001	0.000000	0.000000
62.134530	12.307378	24.657191	-0.021439	0.216905	2.126707	0.000000	0.004336	0.000000	-0.000010	-0.000001	0.000000	0.000000
62.431853	12.327313	24.531964	-0.045608	0.204279	2.127996	0.000000	0.004336	0.000000	-0.000011	-0.000001	0.000000	0.000000
62.765186	12.366750	24.400496	-0.072705	0.190125	2.129442	0.000000	0.004336	0.000000	-0.000011	-0.000001	0.000000	0.000000
63.098520	12.424252	24.278464	-0.099801	0.175970	2.130887	0.000000	0.004336	0.000000	-0.000011	-0.000001	0.000000	0.000000
63.433103	12.500136	24.165465	-0.126999	0.161762	2.132338	0.000000	0.004336	0.000000	-0.000012	-0.000001	0.000000	0.000000
63.730426	12.582842	24.073028	-0.120308	0.090095	2.133628	0.000000	-0.000897	0.000000	-0.000012	-0.000001	0.000000	0.000000
64.171386	12.849205	23.728461	-0.486037	0.688333	2.146771	0.000000	0.060566	0.000000	-0.000013	-0.000001	0.000000	0.000000
64.612346	13.446647	22.868143	-0.873971	1.255253	2.187144	0.000000	0.122719	0.000000	-0.000013	-0.000002	0.000000	0.000000
65.053306	14.402463	21.531219	-1.301834	1.765059	2.255206	0.000000	0.186270	0.000000	-0.000014	-0.000002	0.000000	0.000000
65.494266	15.760322	19.778518	-1.789174	2.194557	2.351732	0.000000	0.251942	0.000000	-0.000015	-0.000003	0.000000	0.000000
65.940226	17.605421	17.664987	-2.362948	2.524956	2.479394	0.000000	0.320885	0.000000	-0.000017	-0.000003	0.000000	0.000000
66.489286	19.970754	15.300638	-1.919521	1.806639	2.635218	0.000000	0.245876	0.000000	-0.000018	-0.000002	0.000000	0.000000
67.038346	21.771363	13.650218	-1.340508	1.217004	2.748597	0.000000	0.166506	0.000000	-0.000019	-0.000002	0.000000	0.000000
67.587406	22.880062	12.596173	-0.666809	0.714054	2.817520	0.000000	0.084182	0.000000	-0.000020	-0.000001	0.000000	0.000000
68.136466	23.218540	12.063425	0.053990	0.261965	2.840765	0.000000	0.000364	0.000000	-0.000020	-0.000000	0.000000	0.000000
68.435038	23.226372	11.896195	-0.019546	0.266608	2.843091	0.000000	0.007788	0.000000	-0.000021	-0.000001	0.000000	0.000000
68.768372	23.244188	11.728461	-0.033903	0.236596	2.845687	0.000000	0.007788	0.000000	-0.000021	-0.000001	0.000000	0.000000
69.101705	23.271575	11.580734	-0.048260	0.206584	2.848283	0.000000	0.007788	0.000000	-0.000021	-0.000001	0.000000	0.000000
69.436288	23.308690	11.452574	-0.062670	0.176460	2.850889	0.000000	0.007788	0.000000	-0.000021	-0.000001	0.000000	0.000000
69.733611	23.349765	11.355603	-0.136496	0.179365	2.853205	0.000000	0.015244	0.000000	-0.000021	-0.000001	0.000000	0.000000
70.282671	23.098630	11.386079	0.591179	-0.235200	2.838395	0.000000	-0.069113	0.000000	-0.000021	0.000000	0.000000	0.000000
