#ParticleID	Turn	x[m]	xp	y[m]	yp	z[m]	dE[GeV]# s	beta_x	beta_y	alpha_x	alpha_y	D_x	D_y	D_px	D_py	orbit_x	orbit_px	orbit_y	orbit_py
0.300000	11.814836	25.014837	-0.011115	-0.027329	2.618046	0.000000	0.000038	0.000000	-0.000001	0.000001	0.000000	0.000000
0.601250	11.829215	25.034934	-0.036616	-0.039381	2.618057	0.000000	0.000038	0.000000	-0.000001	0.000001	0.000000	0.000000
0.898573	11.858472	25.061888	-0.032703	-0.112735	2.618068	0.000000	-0.006382	0.000000	-0.000000	0.000001	0.000000	0.000000
1.339533	12.039455	24.883309	-0.379283	0.516172	2.631546	0.000000	0.067574	0.000000	0.000000	0.000001	0.000000	0.000000
1.780493	12.532550	24.158362	-0.743191	1.121593	2.677774	0.000000	0.142300	0.000000	0.000001	0.000001	0.000000	0.000000
2.221453	13.360287	22.920030	-1.141053	1.675983	2.757279	0.000000	0.218646	0.000000	0.000001	0.000001	0.000000	0.000000
2.662413	14.560480	21.224659	-1.591047	2.154116	2.870967	0.000000	0.297483	0.000000	0.000002	0.000001	0.000000	0.000000
3.108373	16.208713	19.124521	-2.118021	2.535372	3.021993	0.000000	0.380198	0.000000	0.000002	0.000001	0.000000	0.000000
3.657433	18.322293	16.765761	-1.708643	1.785982	3.205472	0.000000	0.287159	0.000000	0.000003	0.000001	0.000000	0.000000
4.206493	19.916990	15.155657	-1.178575	1.163803	3.336391	0.000000	0.189028	0.000000	0.000004	0.000001	0.000000	0.000000
4.755553	20.880161	14.179522	-0.565259	0.624519	3.412430	0.000000	0.087543	0.000000	0.000004	0.000001	0.000000	0.000000
5.304613	21.143774	13.767830	0.087985	0.129719	3.432238	0.000000	-0.015494	0.000000	0.000005	0.000001	0.000000	0.000000
5.603185	21.128443	13.675542	0.018606	0.143409	3.430289	0.000000	-0.006527	0.000000	0.000005	0.000001	0.000000	0.000000
5.936519	21.121300	13.588228	0.002824	0.118533	3.428113	0.000000	-0.006527	0.000000	0.000006	0.000001	0.000000	0.000000
6.269852	21.124677	13.517498	-0.012958	0.093657	3.425937	0.000000	-0.006527	0.000000	0.000006	0.000001	0.000000	0.000000
6.604435	21.138649	13.463180	-0.028799	0.068688	3.423753	0.000000	-0.006527	0.000000	0.000006	0.000001	0.000000	0.000000
6.901758	21.159959	13.428932	-0.098160	0.081585	3.421812	0.000000	0.002413	0.000000	0.000006	0.000001	0.000000	0.000000
7.450818	20.907119	13.600141	0.555932	-0.395248	3.394935	0.000000	-0.100172	0.000000	0.000007	0.000001	0.000000	0.000000
7.999878	19.953419	14.307265	1.170755	-0.900235	3.312137	0.000000	-0.200980	0.000000	0.000007	0.000000	0.000000	0.000000
8.548938	18.366224	15.600671	1.702882	-1.469343	3.174889	0.000000	-0.298223	0.000000	0.000007	0.000000	0.000000	0.000000
9.097998	16.257646	17.572485	2.114726	-2.143109	2.985624	0.000000	-0.390177	0.000000	0.000007	0.000000	0.000000	0.000000
9.543958	14.612567	19.329473	1.587238	-1.780026	2.829928	0.000000	-0.308466	0.000000	0.000008	0.000000	0.000000	0.000000
9.984918	13.416022	20.709291	1.136555	-1.337187	2.711154	0.000000	-0.230753	0.000000	0.000008	0.000000	0.000000	0.000000
10.425878	12.592631	21.670136	0.737799	-0.833507	2.626037	0.000000	-0.155668	0.000000	0.000008	0.000001	0.000000	0.000000
10.866838	12.104774	22.168293	0.372750	-0.291903	2.573607	0.000000	-0.082356	0.000000	0.000008	0.000001	0.000000	0.000000
11.309048	11.930029	22.180573	0.053879	0.208533	2.553247	0.000000	-0.016242	0.000000	0.000009	0.000001	0.000000	0.000000
11.606371	11.905421	22.060728	0.028885	0.194546	2.548418	0.000000	-0.016242	0.000000	0.000009	0.000001	0.000000	0.000000
12.086371	11.897061	21.884803	-0.011466	0.171964	2.540621	0.000000	-0.016242	0.000000	0.000009	0.000001	0.000000	0.000000
12.566371	11.927437	21.730557	-0.051818	0.149383	2.532824	0.000000	-0.016242	0.000000	0.000010	0.000001	0.000000	0.000000
13.046371	11.996551	21.597988	-0.092169	0.126801	2.525027	0.000000	-0.016242	0.000000	0.000010	0.000001	0.000000	0.000000
13.526371	12.104402	21.487099	-0.132521	0.104219	2.517230	0.000000	-0.016242	0.000000	0.000011	0.000001	0.000000	0.000000
14.007621	12.251423	21.397683	-0.172977	0.081579	2.509413	0.000000	-0.016242	0.000000	0.000011	0.000001	0.000000	0.000000
14.304943	12.361714	21.353331	-0.167660	0.015233	2.504584	0.000000	-0.022384	0.000000	0.000012	0.000001	0.000000	0.000000
14.745903	12.668128	21.106183	-0.529852	0.543113	2.510346	0.000000	0.048548	0.000000	0.000012	0.000001	0.000000	0.000000
15.186863	13.303392	20.402646	-0.916252	1.046281	2.547479	0.000000	0.120032	0.000000	0.000013	0.000002	0.000000	0.000000
15.627823	14.296531	19.274732	-1.344512	1.501845	2.616404	0.000000	0.192883	0.000000	0.000014	0.000002	0.000000	0.000000
16.068783	15.692919	17.773760	-1.834200	1.889076	2.717906	0.000000	0.267931	0.000000	0.000014	0.000002	0.000000	0.000000
16.514743	17.580009	15.946519	-2.412444	2.191100	2.854838	0.000000	0.346493	0.000000	0.000016	0.000003	0.000000	0.000000
17.063803	20.003695	13.906224	-1.975669	1.546811	3.021348	0.000000	0.259145	0.000000	0.000017	0.000002	0.000000	0.000000
17.612863	21.867814	12.509146	-1.399342	1.012698	3.138564	0.000000	0.167202	0.000000	0.000018	0.000002	0.000000	0.000000
18.161923	23.040694	11.655775	-0.724172	0.550717	3.204409	0.000000	0.072292	0.000000	0.000019	0.000001	0.000000	0.000000
18.710983	23.439489	11.285325	0.002149	0.127963	3.217713	0.000000	-0.023900	0.000000	0.000019	0.000000	0.000000	0.000000
19.009556	23.478587	11.199403	-0.071867	0.130332	3.213087	0.000000	-0.015494	0.000000	0.000019	0.000000	0.000000	0.000000
19.342889	23.531255	11.122604	-0.086137	0.100063	3.207922	0.000000	-0.015494	0.000000	0.000019	0.000000	0.000000	0.000000
19.676223	23.593437	11.065985	-0.100408	0.069794	3.202757	0.000000	-0.015494	0.000000	0.000019	0.000000	0.000000	0.000000
20.010806	23.665713	11.029310	-0.231985	0.094057	3.197593	0.000000	0.000349	0.000000	0.000020	0.000001	0.000000	0.000000
20.308129	23.807598	10.981466	-0.307419	0.095549	3.197697	0.000000	0.008702	0.000000	0.000020	0.000001	0.000000	0.000000
20.857189	23.734559	11.098712	0.439657	-0.310350	3.176250	0.000000	-0.086709	0.000000	0.000020	-0.000000	0.000000	0.000000
21.406249	22.853409	11.671135	1.155677	-0.738355	3.102762	0.000000	-0.180582	0.000000	0.000020	-0.000001	0.000000	0.000000
21.955309	21.226386	12.739508	1.790067	-1.218951	2.978538	0.000000	-0.271253	0.000000	0.000019	-0.000001	0.000000	0.000000
22.504369	18.968417	14.379928	2.298015	-1.786371	2.805779	0.000000	-0.357112	0.000000	0.000018	-0.000002	0.000000	0.000000
22.950329	17.188927	15.852720	1.706314	-1.502217	2.663819	0.000000	-0.279888	0.000000	0.000017	-0.000001	0.000000	0.000000
23.391289	15.913402	17.026960	1.197267	-1.150567	2.556726	0.000000	-0.206306	0.000000	0.000017	-0.000001	0.000000	0.000000
23.832249	15.061091	17.866717	0.742919	-0.746568	2.481530	0.000000	-0.135074	0.000000	0.000017	-0.000001	0.000000	0.000000
24.273209	14.593053	18.333781	0.322513	-0.308600	2.437376	0.000000	-0.065381	0.000000	0.000016	-0.000000	0.000000	0.000000
24.715418	14.488025	18.406657	-0.047721	0.098208	2.423758	0.000000	-0.002375	0.000000	0.000016	0.000000	0.000000	0.000000
25.012741	14.522518	18.353107	-0.068290	0.081899	2.423052	0.000000	-0.002375	0.000000	0.000017	0.000000	0.000000	0.000000
25.346075	14.575731	18.304602	-0.091350	0.063615	2.422260	0.000000	-0.002375	0.000000	0.000017	0.000000	0.000000	0.000000
25.679408	14.644318	18.268287	-0.114410	0.045331	2.421468	0.000000	-0.002375	0.000000	0.000017	0.000000	0.000000	0.000000
26.013991	14.728323	18.244464	-0.018070	-0.121030	2.420649	0.000000	-0.022013	0.000000	0.000017	0.000000	0.000000	0.000000
26.311314	14.745072	18.321350	-0.002111	-0.182487	2.414104	0.000000	-0.027932	0.000000	0.000017	0.000000	0.000000	0.000000
26.752274	14.928600	18.283589	-0.415669	0.267794	2.416901	0.000000	0.040629	0.000000	0.000017	0.000000	0.000000	0.000000
27.193234	15.483818	17.852592	-0.848218	0.705892	2.450003	0.000000	0.109652	0.000000	0.000017	0.000001	0.000000	0.000000
27.634194	16.436092	17.047969	-1.319521	1.111871	2.513788	0.000000	0.179924	0.000000	0.000018	0.000001	0.000000	0.000000
28.075154	17.828929	15.906330	-1.851108	1.467262	2.608981	0.000000	0.252245	0.000000	0.000018	0.000002	0.000000	0.000000
28.521114	19.750162	14.462421	-2.472234	1.756806	2.738271	0.000000	0.327883	0.000000	0.000019	0.000002	0.000000	0.000000
29.070174	22.192063	12.853620	-1.948859	1.190589	2.895628	0.000000	0.244461	0.000000	0.000020	0.000002	0.000000	0.000000
29.619234	23.979781	11.816655	-1.287826	0.709176	3.005921	0.000000	0.156703	0.000000	0.000021	0.000001	0.000000	0.000000
30.168294	24.987040	11.277666	-0.535828	0.278277	3.067194	0.000000	0.066165	0.000000	0.000022	0.000000	0.000000	0.000000
30.717354	25.142692	11.198260	0.254018	-0.132802	3.078362	0.000000	-0.025546	0.000000	0.000021	-0.000000	0.000000	0.000000
31.015927	25.033899	11.268140	0.176040	-0.130497	3.073136	0.000000	-0.017505	0.000000	0.000021	-0.000000	0.000000	0.000000
31.349260	24.921115	11.365166	0.162312	-0.160582	3.067301	0.000000	-0.017505	0.000000	0.000021	-0.000000	0.000000	0.000000
31.682593	24.817483	11.482250	0.148585	-0.190668	3.061466	0.000000	-0.017505	0.000000	0.000021	-0.000000	0.000000	0.000000
32.017177	24.722665	11.619942	0.134805	-0.220867	3.055609	0.000000	-0.017505	0.000000	0.000021	-0.000000	0.000000	0.000000
32.314499	24.646145	11.759259	0.058176	-0.216983	3.050405	0.000000	-0.009536	0.000000	0.000021	-0.000000	0.000000	0.000000
32.863559	24.159995	12.236750	0.822004	-0.657803	3.020281	0.000000	-0.100034	0.000000	0.000021	-0.000001	0.000000	0.000000
33.412619	22.862144	13.221049	1.527770	-1.145477	2.940882	0.000000	-0.188758	0.000000	0.000020	-0.000002	0.000000	0.000000
33.961679	20.844267	14.782265	2.125622	-1.714741	2.813618	0.000000	-0.274134	0.000000	0.000019	-0.000002	0.000000	0.000000
34.510739	18.248895	17.031601	2.573330	-2.406142	2.640745	0.000000	-0.354648	0.000000	0.000017	-0.000003	0.000000	0.000000
34.956699	16.230890	19.043547	1.967961	-2.086516	2.498932	0.000000	-0.281703	0.000000	0.000016	-0.000002	0.000000	0.000000
35.397659	14.726101	20.707544	1.457515	-1.672700	2.390098	0.000000	-0.212394	0.000000	0.000015	-0.000002	0.000000	0.000000
35.838619	13.640530	21.971506	1.013659	-1.182778	2.311264	0.000000	-0.145505	0.000000	0.000015	-0.000002	0.000000	0.000000
36.279579	12.924581	22.777924	0.616114	-0.639041	2.261533	0.000000	-0.080273	0.000000	0.000014	-0.000001	0.000000	0.000000
36.721789	12.544851	23.090414	0.277372	-0.122898	2.240310	0.000000	-0.021448	0.000000	0.000013	-0.000001	0.000000	0.000000
37.019112	12.387502	23.167381	0.251848	-0.135969	2.233933	0.000000	-0.021448	0.000000	0.000013	-0.000001	0.000000	0.000000
37.352445	12.229142	23.262912	0.223232	-0.150623	2.226784	0.000000	-0.021448	0.000000	0.000013	-0.000001	0.000000	0.000000
37.685779	12.089859	23.368213	0.194616	-0.165278	2.219635	0.000000	-0.021448	0.000000	0.000013	-0.000001	0.000000	0.000000
38.020362	11.969239	23.483732	0.165893	-0.179987	2.212459	0.000000	-0.021448	0.000000	0.000012	-0.000001	0.000000	0.000000
38.317684	11.878180	23.594647	0.169495	-0.250912	2.206083	0.000000	-0.026858	0.000000	0.000012	-0.000001	0.000000	0.000000
38.758644	11.880137	23.554592	-0.173951	0.341402	2.208170	0.000000	0.036331	0.000000	0.000012	-0.000001	0.000000	0.000000
39.199604	12.187333	22.997044	-0.525343	0.918183	2.238185	0.000000	0.099933	0.000000	0.000012	-0.000000	0.000000	0.000000
39.640564	12.813801	21.947370	-0.900738	1.453187	2.296470	0.000000	0.164674	0.000000	0.000011	-0.000000	0.000000	0.000000
40.081524	13.788163	20.453330	-1.317284	1.922072	2.383689	0.000000	0.231290	0.000000	0.000011	0.000000	0.000000	0.000000
40.527484	15.172512	18.560330	-1.797840	2.304788	2.502307	0.000000	0.300946	0.000000	0.000012	0.000001	0.000000	0.000000
41.076544	16.939108	16.433075	-1.400605	1.592439	2.647011	0.000000	0.225374	0.000000	0.000012	0.000000	0.000000	0.000000
41.625604	18.212252	15.021562	-0.904438	0.993516	2.749061	0.000000	0.145805	0.000000	0.000012	-0.000000	0.000000	0.000000
42.174664	18.902014	14.225253	-0.344386	0.465358	2.806647	0.000000	0.063649	0.000000	0.000012	-0.000001	0.000000	0.000000
42.723724	18.959674	13.987429	0.239992	-0.029653	2.818749	0.000000	-0.019635	0.000000	0.000011	-0.000001	0.000000	0.000000
43.022297	18.850815	13.989688	0.174139	-0.014456	2.815085	0.000000	-0.012271	0.000000	0.000011	-0.000001	0.000000	0.000000
43.502297	18.696235	14.020039	0.147904	-0.048775	2.809195	0.000000	-0.012271	0.000000	0.000011	-0.000001	0.000000	0.000000
43.982297	18.566840	14.083335	0.121669	-0.083093	2.803306	0.000000	-0.012271	0.000000	0.000010	-0.000001	0.000000	0.000000
44.462297	18.462631	14.179577	0.095433	-0.117411	2.797416	0.000000	-0.012271	0.000000	0.000010	-0.000001	0.000000	0.000000
44.942297	18.383608	14.308764	0.069198	-0.151729	2.791527	0.000000	-0.012271	0.000000	0.000009	-0.000001	0.000000	0.000000
45.423547	18.329890	14.471182	-0.047922	-0.114437	2.785639	0.000000	0.001531	0.000000	0.000009	-0.000001	0.000000	0.000000
45.720870	18.363221	14.545421	-0.112156	-0.097251	2.786094	0.000000	0.008810	0.000000	0.000008	-0.000001	0.000000	0.000000
46.269930	18.177180	14.933532	0.448984	-0.613787	2.768357	0.000000	-0.073325	0.000000	0.000008	-0.000001	0.000000	0.000000
46.818990	17.388787	15.909398	0.978411	-1.174043	2.705815	0.000000	-0.154160	0.000000	0.000007	-0.000001	0.000000	0.000000
47.368050	16.053730	17.542527	1.438727	-1.817922	2.599575	0.000000	-0.232260	0.000000	0.000006	-0.000002	0.000000	0.000000
47.917110	14.266310	19.949242	1.797419	-2.591289	2.451524	0.000000	-0.306240	0.000000	0.000006	-0.000002	0.000000	0.000000
48.363070	12.875353	22.089016	1.332649	-2.186670	2.330247	0.000000	-0.237937	0.000000	0.000005	-0.000002	0.000000	0.000000
48.804030	11.880273	23.802273	0.932533	-1.683833	2.239788	0.000000	-0.172740	0.000000	0.000004	-0.000002	0.000000	0.000000
49.244990	11.218014	25.036461	0.575022	-1.104383	2.177617	0.000000	-0.109511	0.000000	0.000003	-0.000001	0.000000	0.000000
49.685950	10.858319	25.735426	0.243782	-0.474684	2.143026	0.000000	-0.047529	0.000000	0.000003	-0.000001	0.000000	0.000000
50.128160	10.784878	25.867083	-0.049989	0.113131	2.135633	0.000000	0.008675	0.000000	0.000002	-0.000001	0.000000	0.000000
50.425482	10.822821	25.803271	-0.077627	0.101489	2.138212	0.000000	0.008675	0.000000	0.000002	-0.000001	0.000000	0.000000
50.758816	10.884901	25.739962	-0.108611	0.088438	2.141104	0.000000	0.008675	0.000000	0.000001	-0.000001	0.000000	0.000000
51.092149	10.967636	25.685354	-0.139596	0.075387	2.143996	0.000000	0.008675	0.000000	0.000001	-0.000001	0.000000	0.000000
51.426732	11.071231	25.639811	-0.080880	-0.145716	2.146877	0.000000	-0.008742	0.000000	0.000000	-0.000001	0.000000	0.000000
51.724055	11.127363	25.729981	-0.080623	-0.220656	2.144279	0.000000	-0.014000	0.000000	0.000000	-0.000001	0.000000	0.000000
52.165015	11.343755	25.638325	-0.411970	0.427721	2.151694	0.000000	0.047663	0.000000	-0.000000	-0.000001	0.000000	0.000000
52.605975	11.859533	24.981283	-0.762138	1.056637	2.186395	0.000000	0.109870	0.000000	-0.000001	-0.000001	0.000000	0.000000
53.046935	12.698260	23.788748	-1.147126	1.637477	2.248776	0.000000	0.173328	0.000000	-0.000002	-0.000001	0.000000	0.000000
53.487895	13.898255	22.114981	-1.584522	2.143813	2.339547	0.000000	0.238761	0.000000	-0.000002	-0.000001	0.000000	0.000000
53.933855	15.534913	20.011111	-2.098541	2.553945	2.461248	0.000000	0.307311	0.000000	-0.000003	-0.000001	0.000000	0.000000
54.482915	17.642066	17.643717	-1.716489	1.783229	2.609801	0.000000	0.233008	0.000000	-0.000004	-0.000001	0.000000	0.000000
55.031975	19.260217	16.048365	-1.213194	1.139528	2.716361	0.000000	0.154571	0.000000	-0.000004	-0.000001	0.000000	0.000000
55.581035	20.275066	15.111422	-0.624205	0.576994	2.779036	0.000000	0.073393	0.000000	-0.000005	-0.000001	0.000000	0.000000
56.130095	20.614931	14.766152	0.008875	0.055557	2.796717	0.000000	-0.009087	0.000000	-0.000006	-0.000001	0.000000	0.000000
56.428668	20.646130	14.716027	-0.059503	0.073741	2.796185	0.000000	-0.001780	0.000000	-0.000006	-0.000001	0.000000	0.000000
56.762001	20.691200	14.674457	-0.075706	0.050967	2.795592	0.000000	-0.001780	0.000000	-0.000006	-0.000001	0.000000	0.000000
57.095334	20.747071	14.648071	-0.091908	0.028193	2.795000	0.000000	-0.001780	0.000000	-0.000007	-0.000001	0.000000	0.000000
57.429918	20.814014	14.636853	-0.108171	0.005333	2.794404	0.000000	-0.001780	0.000000	-0.000007	-0.000001	0.000000	0.000000
57.727240	20.882635	14.639722	-0.177189	0.023272	2.793875	0.000000	0.005521	0.000000	-0.000007	-0.000001	0.000000	0.000000
58.276300	20.720951	14.895277	0.469918	-0.491462	2.774269	0.000000	-0.076836	0.000000	-0.000008	-0.000001	0.000000	0.000000
58.825360	19.862768	15.731863	1.083832	-1.041201	2.709751	0.000000	-0.157830	0.000000	-0.000008	-0.000000	0.000000	0.000000
59.374420	18.368705	17.209067	1.621190	-1.665103	2.601467	0.000000	-0.236025	0.000000	-0.000008	-0.000000	0.000000	0.000000
59.923480	16.344293	19.432106	2.044035	-2.407607	2.451337	0.000000	-0.310033	0.000000	-0.000008	0.000000	0.000000	0.000000
60.369440	14.759808	21.407960	1.521523	-2.004255	2.328363	0.000000	-0.241756	0.000000	-0.000008	-0.000000	0.000000	0.000000
60.810400	13.620171	22.964006	1.072728	-1.511086	2.236205	0.000000	-0.176630	0.000000	-0.000008	-0.000000	0.000000	0.000000
61.251360	12.853309	24.053022	0.672943	-0.949164	2.172295	0.000000	-0.113516	0.000000	-0.000008	-0.000001	0.000000	0.000000
61.692320	12.424187	24.625458	0.303903	-0.344055	2.135905	0.000000	-0.051694	0.000000	-0.000009	-0.000001	0.000000	0.000000
62.134530	12.313252	24.654728	-0.021156	0.216188	2.126625	0.000000	0.004323	0.000000	-0.000009	-0.000001	0.000000	0.000000
62.431853	12.333015	24.529926	-0.045314	0.203565	2.127911	0.000000	0.004323	0.000000	-0.000009	-0.000001	0.000000	0.000000
62.765186	12.372252	24.398934	-0.072397	0.189413	2.129352	0.000000	0.004323	0.000000	-0.000010	-0.000001	0.000000	0.000000
63.098520	12.429544	24.277376	-0.099480	0.175261	2.130794	0.000000	0.004323	0.000000	-0.000010	-0.000001	0.000000	0.000000
63.433103	12.505209	24.164850	-0.126665	0.161056	2.132240	0.000000	0.004323	0.000000	-0.000010	-0.000001	0.000000	0.000000
63.730426	12.587712	24.072832	-0.119950	0.089393	2.133526	0.000000	-0.000909	0.000000	-0.000011	-0.000001	0.000000	0.000000
64.171386	12.853805	23.728882	-0.485780	0.687644	2.146664	0.000000	0.060551	0.000000	-0.000011	-0.000001	0.000000	0.000000
64.612346	13.451061	22.869155	-0.873804	1.254608	2.187030	0.000000	0.122701	0.000000	-0.000012	-0.000002	0.000000	0.000000
65.053306	14.406768	21.532769	-1.301750	1.764488	2.255083	0.000000	0.186249	0.000000	-0.000013	-0.000002	0.000000	0.000000
65.494266	15.764587	19.780529	-1.789169	2.194086	2.351599	0.000000	0.251918	0.000000	-0.000014	-0.000002	0.000000	0.000000
65.940226	17.609716	17.667365	-2.363021	2.524608	2.479249	0.000000	0.320858	0.000000	-0.000015	-0.000003	0.000000	0.000000
66.489286	19.975031	15.303399	-1.919415	1.806287	2.635059	0.000000	0.245853	0.000000	-0.000016	-0.000002	0.000000	0.000000
67.038346	21.775428	13.653380	-1.340231	1.216624	2.748426	0.000000	0.166488	0.000000	-0.000017	-0.000002	0.000000	0.000000
67.587406	22.883737	12.599780	-0.666380	0.713618	2.817342	0.000000	0.084170	0.000000	-0.000018	-0.000001	0.000000	0.000000
68.136466	23.221674	12.067556	0.054541	0.261442	2.840582	0.000000	0.000359	0.000000	-0.000018	-0.000000	0.000000	0.000000
68.435038	23.229180	11.900628	-0.019000	0.266111	2.842905	0.000000	0.007782	0.000000	-0.000018	-0.000000	0.000000	0.000000
68.768372	23.246632	11.733218	-0.033355	0.236118	2.845499	0.000000	0.007782	0.000000	-0.000018	-0.000000	0.000000	0.000000
69.101705	23.273654	11.585803	-0.047710	0.206125	2.848093	0.000000	0.007782	0.000000	-0.000018	-0.000000	0.000000	0.000000
69.436288	23.310401	11.457944	-0.062119	0.176019	2.850697	0.000000	0.007782	0.000000	-0.000019	-0.000000	0.000000	0.000000
69.733611	23.351146	11.361230	-0.135945	0.178955	2.853011	0.000000	0.015237	0.000000	-0.000019	-0.000001	0.000000	0.000000
70.282671	23.099386	11.392244	0.591760	-0.235775	2.838199	0.000000	-0.069113	0.000000	-0.000019	0.000000	0.000000	0.000000
