#ParticleID	Turn	x[m]	xp	y[m]	yp	z[m]	dE[GeV]# s	beta_x	beta_y	alpha_x	alpha_y	D_x	D_y	D_px	D_py	orbit_x	orbit_px	orbit_y	orbit_py
0.300000	11.806965	25.046389	-0.010322	-0.026966	2.618163	0.000000	-0.000007	0.000000	-0.000002	0.000002	0.000000	0.000000
0.601250	11.820870	25.066262	-0.035839	-0.039003	2.618160	0.000000	-0.000007	0.000000	-0.000001	0.000002	0.000000	0.000000
0.898573	11.849670	25.092987	-0.031964	-0.112417	2.618157	0.000000	-0.006427	0.000000	-0.000000	0.000002	0.000000	0.000000
1.339533	12.029907	24.913766	-0.378324	0.517304	2.631616	0.000000	0.067531	0.000000	0.000000	0.000002	0.000000	0.000000
1.780493	12.522045	24.187478	-0.741969	1.123489	2.677826	0.000000	0.142258	0.000000	0.000001	0.000002	0.000000	0.000000
2.221453	13.348567	22.947168	-1.139512	1.678556	2.757313	0.000000	0.218606	0.000000	0.000002	0.000002	0.000000	0.000000
2.662413	14.547235	21.249270	-1.589115	2.157250	2.870982	0.000000	0.297443	0.000000	0.000003	0.000002	0.000000	0.000000
3.108373	16.193538	19.146138	-2.115608	2.538924	3.021990	0.000000	0.380158	0.000000	0.000004	0.000002	0.000000	0.000000
3.657433	18.304674	16.783970	-1.706630	1.788676	3.205448	0.000000	0.287120	0.000000	0.000005	0.000002	0.000000	0.000000
4.206493	19.897447	15.171287	-1.177105	1.165831	3.336346	0.000000	0.188990	0.000000	0.000006	0.000002	0.000000	0.000000
4.755553	20.859351	14.193224	-0.564434	0.626026	3.412364	0.000000	0.087507	0.000000	0.000006	0.000001	0.000000	0.000000
5.304613	21.122442	13.780114	0.088105	0.130811	3.432153	0.000000	-0.015528	0.000000	0.000007	0.000001	0.000000	0.000000
5.603185	21.107010	13.687151	0.018768	0.144543	3.430193	0.000000	-0.006561	0.000000	0.000008	0.000001	0.000000	0.000000
5.936519	21.099764	13.599076	0.002970	0.119681	3.428006	0.000000	-0.006561	0.000000	0.000008	0.000001	0.000000	0.000000
6.269852	21.103049	13.527577	-0.012828	0.094818	3.425819	0.000000	-0.006561	0.000000	0.000008	0.000001	0.000000	0.000000
6.604435	21.116939	13.472477	-0.028685	0.069862	3.423623	0.000000	-0.006561	0.000000	0.000009	0.000001	0.000000	0.000000
6.901758	21.138186	13.437528	-0.098002	0.082793	3.421672	0.000000	0.002379	0.000000	0.000009	0.000001	0.000000	0.000000
7.450818	20.885574	13.607538	0.555362	-0.394260	3.394777	0.000000	-0.100201	0.000000	0.000010	0.000001	0.000000	0.000000
7.999878	19.932883	14.313664	1.169498	-0.899395	3.311964	0.000000	-0.201004	0.000000	0.000010	0.000001	0.000000	0.000000
8.548938	18.347407	15.606201	1.701026	-1.468592	3.174704	0.000000	-0.298242	0.000000	0.000011	0.000000	0.000000	0.000000
9.097998	16.241137	17.577215	2.112403	-2.142393	2.985431	0.000000	-0.390189	0.000000	0.000011	-0.000000	0.000000	0.000000
9.543958	14.597902	19.333463	1.585411	-1.779089	2.829728	0.000000	-0.308484	0.000000	0.000011	0.000000	0.000000	0.000000
9.984918	13.402783	20.712373	1.135137	-1.336074	2.710945	0.000000	-0.230776	0.000000	0.000011	0.000001	0.000000	0.000000
10.425878	12.580487	21.672177	0.736723	-0.832268	2.625817	0.000000	-0.155696	0.000000	0.000011	0.000001	0.000000	0.000000
10.866838	12.093446	22.169207	0.371969	-0.290595	2.573373	0.000000	-0.082390	0.000000	0.000012	0.000001	0.000000	0.000000
11.309048	11.919274	22.180321	0.053330	0.209853	2.552996	0.000000	-0.016282	0.000000	0.000012	0.000001	0.000000	0.000000
11.606371	11.894999	22.059694	0.028315	0.195858	2.548155	0.000000	-0.016282	0.000000	0.000013	0.000001	0.000000	0.000000
12.086371	11.887202	21.882515	-0.012071	0.173264	2.540339	0.000000	-0.016282	0.000000	0.000013	0.000001	0.000000	0.000000
12.566371	11.918175	21.727026	-0.052456	0.150671	2.532523	0.000000	-0.016282	0.000000	0.000014	0.000001	0.000000	0.000000
13.046371	11.987918	21.593227	-0.092842	0.128077	2.524707	0.000000	-0.016282	0.000000	0.000015	0.000001	0.000000	0.000000
13.526371	12.096431	21.481119	-0.133227	0.105483	2.516891	0.000000	-0.016282	0.000000	0.000015	0.000001	0.000000	0.000000
14.007621	12.244148	21.390493	-0.173718	0.082830	2.509054	0.000000	-0.016282	0.000000	0.000016	0.000001	0.000000	0.000000
14.304943	12.354886	21.345399	-0.168440	0.016498	2.504213	0.000000	-0.022422	0.000000	0.000016	0.000001	0.000000	0.000000
14.745903	12.661927	21.097237	-0.530502	0.544137	2.509956	0.000000	0.048499	0.000000	0.000017	0.000002	0.000000	0.000000
15.186863	13.297719	20.392921	-0.916802	1.047018	2.547065	0.000000	0.119973	0.000000	0.000018	0.000002	0.000000	0.000000
15.627823	14.291308	19.264497	-1.344987	1.502261	2.615962	0.000000	0.192813	0.000000	0.000019	0.000003	0.000000	0.000000
16.068783	15.688090	17.763307	-1.834621	1.889151	2.717431	0.000000	0.267849	0.000000	0.000020	0.000003	0.000000	0.000000
16.514743	17.575539	15.936153	-2.412832	2.190830	2.854323	0.000000	0.346399	0.000000	0.000022	0.000004	0.000000	0.000000
17.063803	19.999787	13.896023	-1.976297	1.546779	3.020785	0.000000	0.259069	0.000000	0.000024	0.000003	0.000000	0.000000
17.612863	21.864708	12.498851	-1.400166	1.012902	3.137964	0.000000	0.167144	0.000000	0.000025	0.000002	0.000000	0.000000
18.161923	23.038575	11.645119	-0.725134	0.551172	3.203782	0.000000	0.072254	0.000000	0.000026	0.000001	0.000000	0.000000
18.710983	23.438472	11.274019	0.001118	0.128701	3.217071	0.000000	-0.023917	0.000000	0.000027	0.000001	0.000000	0.000000
19.009556	23.478183	11.187685	-0.072894	0.131005	3.212439	0.000000	-0.015514	0.000000	0.000027	0.000001	0.000000	0.000000
19.342889	23.531536	11.110450	-0.087167	0.100699	3.207268	0.000000	-0.015514	0.000000	0.000027	0.000001	0.000000	0.000000
19.676223	23.594405	11.053419	-0.101440	0.070393	3.202096	0.000000	-0.015514	0.000000	0.000027	0.000001	0.000000	0.000000
20.010806	23.667372	11.016356	-0.233028	0.094555	3.196925	0.000000	0.000326	0.000000	0.000027	0.000001	0.000000	0.000000
20.308129	23.809878	10.968225	-0.308469	0.095976	3.197022	0.000000	0.008677	0.000000	0.000028	0.000001	0.000000	0.000000
20.857189	23.737945	11.084797	0.438705	-0.309542	3.175567	0.000000	-0.086712	0.000000	0.000028	-0.000000	0.000000	0.000000
21.406249	22.857754	11.656098	1.154891	-0.737108	3.102084	0.000000	-0.180564	0.000000	0.000028	-0.000001	0.000000	0.000000
21.955309	21.231478	12.722821	1.789501	-1.217176	2.977876	0.000000	-0.271212	0.000000	0.000027	-0.000002	0.000000	0.000000
22.504369	18.973990	14.360946	2.297709	-1.783942	2.805146	0.000000	-0.357050	0.000000	0.000026	-0.000003	0.000000	0.000000
22.950329	17.194804	15.831764	1.705932	-1.500237	2.663209	0.000000	-0.279842	0.000000	0.000025	-0.000002	0.000000	0.000000
23.391289	15.919656	17.004491	1.196792	-1.149126	2.556133	0.000000	-0.206276	0.000000	0.000024	-0.000001	0.000000	0.000000
23.832249	15.067813	17.843239	0.742329	-0.745731	2.480947	0.000000	-0.135060	0.000000	0.000023	-0.000001	0.000000	0.000000
24.273209	14.600356	18.309846	0.321781	-0.308405	2.436796	0.000000	-0.065381	0.000000	0.000023	-0.000000	0.000000	0.000000
24.715418	14.496051	18.382838	-0.048612	0.097813	2.423174	0.000000	-0.002388	0.000000	0.000023	0.000000	0.000000	0.000000
25.012741	14.531070	18.329529	-0.069171	0.081485	2.422464	0.000000	-0.002388	0.000000	0.000023	0.000000	0.000000	0.000000
25.346075	14.584867	18.281308	-0.092220	0.063178	2.421668	0.000000	-0.002388	0.000000	0.000023	0.000000	0.000000	0.000000
25.679408	14.654030	18.245291	-0.115269	0.044872	2.420872	0.000000	-0.002388	0.000000	0.000023	0.000000	0.000000	0.000000
26.013991	14.738606	18.221781	-0.018835	-0.121327	2.420048	0.000000	-0.022021	0.000000	0.000023	0.000000	0.000000	0.000000
26.311314	14.755806	18.298851	-0.002838	-0.182748	2.413500	0.000000	-0.027939	0.000000	0.000023	0.000000	0.000000	0.000000
26.752274	14.940094	18.261589	-0.416670	0.266929	2.416291	0.000000	0.040606	0.000000	0.000024	0.000001	0.000000	0.000000
27.193234	15.496332	17.831608	-0.849539	0.704461	2.449379	0.000000	0.109614	0.000000	0.000024	0.000001	0.000000	0.000000
27.634194	16.449933	17.028474	-1.321222	1.109940	2.513143	0.000000	0.179869	0.000000	0.000025	0.000002	0.000000	0.000000
28.075154	17.844466	15.888727	-1.853267	1.464918	2.608308	0.000000	0.252174	0.000000	0.000026	0.000003	0.000000	0.000000
28.521114	19.767867	14.447054	-2.474954	1.754155	2.737562	0.000000	0.327793	0.000000	0.000027	0.000003	0.000000	0.000000
29.070174	22.212516	12.840820	-1.951111	1.188537	2.894875	0.000000	0.244395	0.000000	0.000029	0.000002	0.000000	0.000000
29.619234	24.002376	11.805849	-1.289452	0.707575	3.005139	0.000000	0.156662	0.000000	0.000030	0.000001	0.000000	0.000000
30.168294	25.011021	11.268423	-0.536712	0.277013	3.066397	0.000000	0.066149	0.000000	0.000030	0.000000	0.000000	0.000000
30.717354	25.167204	11.190262	0.253939	-0.133818	3.077563	0.000000	-0.025536	0.000000	0.000030	-0.000001	0.000000	0.000000
31.015927	25.058490	11.260770	0.175915	-0.131561	3.072339	0.000000	-0.017497	0.000000	0.000030	-0.000000	0.000000	0.000000
31.349260	24.945785	11.358515	0.162201	-0.161674	3.066507	0.000000	-0.017497	0.000000	0.000030	-0.000000	0.000000	0.000000
31.682593	24.842222	11.476335	0.148487	-0.191788	3.060674	0.000000	-0.017497	0.000000	0.000030	-0.000000	0.000000	0.000000
32.017177	24.747466	11.614787	0.134722	-0.222015	3.054820	0.000000	-0.017497	0.000000	0.000029	-0.000000	0.000000	0.000000
32.314499	24.670991	11.754793	0.058044	-0.218170	3.049618	0.000000	-0.009531	0.000000	0.000029	-0.000000	0.000000	0.000000
32.863559	24.184532	12.233547	0.822695	-0.658930	3.019504	0.000000	-0.100004	0.000000	0.000029	-0.000001	0.000000	0.000000
33.412619	22.885492	13.219087	1.529234	-1.146624	2.940129	0.000000	-0.188703	0.000000	0.000028	-0.000002	0.000000	0.000000
33.961679	20.865627	14.781611	2.127755	-1.715989	2.812902	0.000000	-0.274055	0.000000	0.000026	-0.000003	0.000000	0.000000
34.510739	18.267612	17.032413	2.575982	-2.407581	2.640079	0.000000	-0.354547	0.000000	0.000024	-0.000004	0.000000	0.000000
34.956699	16.247505	19.045701	1.970040	-2.088072	2.498308	0.000000	-0.281618	0.000000	0.000023	-0.000003	0.000000	0.000000
35.397659	14.741095	20.711095	1.459123	-1.674301	2.389508	0.000000	-0.212326	0.000000	0.000021	-0.000003	0.000000	0.000000
35.838619	13.654286	21.976462	1.014868	-1.184351	2.310702	0.000000	-0.145451	0.000000	0.000020	-0.000002	0.000000	0.000000
36.279579	12.937426	22.784228	0.616980	-0.640513	2.260991	0.000000	-0.080233	0.000000	0.000019	-0.000002	0.000000	0.000000
36.721789	12.557067	23.097951	0.277962	-0.124220	2.239783	0.000000	-0.021421	0.000000	0.000019	-0.000001	0.000000	0.000000
37.019112	12.399362	23.175704	0.252455	-0.137291	2.233415	0.000000	-0.021421	0.000000	0.000018	-0.000001	0.000000	0.000000
37.352445	12.240591	23.272116	0.223859	-0.151945	2.226275	0.000000	-0.021421	0.000000	0.000018	-0.000001	0.000000	0.000000
37.685779	12.100884	23.378297	0.195262	-0.166599	2.219135	0.000000	-0.021421	0.000000	0.000018	-0.000001	0.000000	0.000000
38.020362	11.979825	23.494700	0.166558	-0.181307	2.211969	0.000000	-0.021421	0.000000	0.000017	-0.000001	0.000000	0.000000
38.317684	11.888365	23.606400	0.170200	-0.252259	2.205600	0.000000	-0.026829	0.000000	0.000017	-0.000001	0.000000	0.000000
38.758644	11.889801	23.567392	-0.173470	0.340385	2.207698	0.000000	0.036348	0.000000	0.000016	-0.000001	0.000000	0.000000
39.199604	12.196663	23.010578	-0.525065	0.917542	2.237718	0.000000	0.099938	0.000000	0.000016	-0.000000	0.000000	0.000000
39.640564	12.822971	21.961292	-0.900650	1.452951	2.296002	0.000000	0.164667	0.000000	0.000016	-0.000000	0.000000	0.000000
40.081524	13.797338	20.467276	-1.317382	1.922253	2.383215	0.000000	0.231270	0.000000	0.000016	0.000000	0.000000	0.000000
40.527484	15.181858	18.573931	-1.798130	2.305379	2.501822	0.000000	0.300914	0.000000	0.000016	0.000001	0.000000	0.000000
41.076544	16.948573	16.446229	-1.400530	1.592664	2.646512	0.000000	0.225358	0.000000	0.000017	0.000000	0.000000	0.000000
41.625604	18.221435	15.034662	-0.904003	0.993391	2.748558	0.000000	0.145805	0.000000	0.000017	-0.000000	0.000000	0.000000
42.174664	18.910535	14.238684	-0.343622	0.464875	2.806149	0.000000	0.063666	0.000000	0.000016	-0.000001	0.000000	0.000000
42.723724	18.967198	14.001602	0.241031	-0.030529	2.818264	0.000000	-0.019603	0.000000	0.000016	-0.000001	0.000000	0.000000
43.022297	18.857730	14.004356	0.175161	-0.015275	2.814610	0.000000	-0.012240	0.000000	0.000015	-0.000001	0.000000	0.000000
43.502297	18.702168	14.035476	0.148926	-0.049558	2.808735	0.000000	-0.012240	0.000000	0.000015	-0.000001	0.000000	0.000000
43.982297	18.571791	14.099507	0.122692	-0.083841	2.802861	0.000000	-0.012240	0.000000	0.000014	-0.000001	0.000000	0.000000
44.462297	18.466600	14.196450	0.096457	-0.118124	2.796986	0.000000	-0.012240	0.000000	0.000013	-0.000001	0.000000	0.000000
44.942297	18.386594	14.326305	0.070222	-0.152407	2.791111	0.000000	-0.012240	0.000000	0.000013	-0.000001	0.000000	0.000000
45.423547	18.331890	14.489359	-0.046907	-0.114990	2.785239	0.000000	0.001560	0.000000	0.000012	-0.000001	0.000000	0.000000
45.720870	18.364616	14.563919	-0.111140	-0.097733	2.785703	0.000000	0.008837	0.000000	0.000012	-0.000001	0.000000	0.000000
46.269930	18.177444	14.952871	0.450018	-0.614845	2.767985	0.000000	-0.073285	0.000000	0.000011	-0.000002	0.000000	0.000000
46.818990	17.387940	15.930246	0.979389	-1.175751	2.705467	0.000000	-0.154108	0.000000	0.000010	-0.000002	0.000000	0.000000
47.368050	16.051870	17.565661	1.439581	-1.820403	2.599259	0.000000	-0.232197	0.000000	0.000009	-0.000002	0.000000	0.000000
47.917110	14.263609	19.975602	1.798088	-2.594718	2.451245	0.000000	-0.306168	0.000000	0.000008	-0.000002	0.000000	0.000000
48.363070	12.872064	22.118182	1.333303	-2.189506	2.329999	0.000000	-0.237871	0.000000	0.000007	-0.000002	0.000000	0.000000
48.804030	11.876403	23.833631	0.933203	-1.685950	2.239568	0.000000	-0.172681	0.000000	0.000006	-0.000002	0.000000	0.000000
49.244990	11.213534	25.069332	0.575738	-1.105684	2.177422	0.000000	-0.109457	0.000000	0.000005	-0.000002	0.000000	0.000000
49.685950	10.853175	25.769062	0.244578	-0.475110	2.142854	0.000000	-0.047480	0.000000	0.000004	-0.000002	0.000000	0.000000
50.128160	10.778982	25.900699	-0.049093	0.113517	2.135482	0.000000	0.008720	0.000000	0.000003	-0.000002	0.000000	0.000000
50.425482	10.816396	25.836653	-0.076743	0.101890	2.138075	0.000000	0.008720	0.000000	0.000002	-0.000002	0.000000	0.000000
50.758816	10.877891	25.773072	-0.107742	0.088855	2.140982	0.000000	0.008720	0.000000	0.000002	-0.000002	0.000000	0.000000
51.092149	10.960052	25.718181	-0.138741	0.075819	2.143890	0.000000	0.008720	0.000000	0.000001	-0.000002	0.000000	0.000000
51.426732	11.063079	25.672344	-0.080105	-0.145532	2.146786	0.000000	-0.008696	0.000000	0.000001	-0.000002	0.000000	0.000000
51.724055	11.118755	25.762400	-0.079886	-0.220536	2.144201	0.000000	-0.013954	0.000000	0.000000	-0.000002	0.000000	0.000000
52.165015	11.334406	25.670260	-0.411018	0.428695	2.151637	0.000000	0.047708	0.000000	-0.000001	-0.000002	0.000000	0.000000
52.605975	11.849234	25.011997	-0.760929	1.058420	2.186357	0.000000	0.109914	0.000000	-0.000002	-0.000002	0.000000	0.000000
53.046935	12.686761	23.817561	-1.145603	1.639989	2.248757	0.000000	0.173371	0.000000	-0.000002	-0.000002	0.000000	0.000000
53.487895	13.885250	22.141299	-1.582618	2.146939	2.339547	0.000000	0.238803	0.000000	-0.000003	-0.000002	0.000000	0.000000
53.933855	15.520006	20.034418	-2.096162	2.557543	2.461267	0.000000	0.307354	0.000000	-0.000004	-0.000002	0.000000	0.000000
54.482915	17.624749	17.663586	-1.714504	1.785928	2.609844	0.000000	0.233049	0.000000	-0.000005	-0.000002	0.000000	0.000000
55.031975	19.241001	16.065673	-1.211743	1.141520	2.716426	0.000000	0.154611	0.000000	-0.000006	-0.000002	0.000000	0.000000
55.581035	20.254598	15.126864	-0.623389	0.578421	2.779123	0.000000	0.073430	0.000000	-0.000007	-0.000002	0.000000	0.000000
56.130095	20.593945	14.780289	0.008997	0.056521	2.796823	0.000000	-0.009053	0.000000	-0.000008	-0.000001	0.000000	0.000000
56.428668	20.625043	14.729561	-0.059342	0.074758	2.796303	0.000000	-0.001745	0.000000	-0.000008	-0.000001	0.000000	0.000000
56.762001	20.670011	14.687308	-0.075561	0.052002	2.795721	0.000000	-0.001745	0.000000	-0.000009	-0.000001	0.000000	0.000000
57.095334	20.725790	14.660225	-0.091779	0.029245	2.795140	0.000000	-0.001745	0.000000	-0.000009	-0.000001	0.000000	0.000000
57.429918	20.792653	14.648298	-0.108058	0.006403	2.794557	0.000000	-0.001745	0.000000	-0.000010	-0.000001	0.000000	0.000000
57.727240	20.861210	14.650526	-0.177036	0.024387	2.794038	0.000000	0.005556	0.000000	-0.000010	-0.000001	0.000000	0.000000
58.276300	20.699754	14.905021	0.469354	-0.490634	2.774449	0.000000	-0.076807	0.000000	-0.000011	-0.000001	0.000000	0.000000
58.825360	19.842568	15.740828	1.082592	-1.040601	2.709947	0.000000	-0.157807	0.000000	-0.000011	-0.000001	0.000000	0.000000
59.374420	18.350200	17.217477	1.619360	-1.664688	2.601674	0.000000	-0.236008	0.000000	-0.000011	-0.000000	0.000000	0.000000
59.923480	16.328063	19.440149	2.041746	-2.407347	2.451551	0.000000	-0.310022	0.000000	-0.000012	0.000000	0.000000	0.000000
60.369440	14.745397	21.415639	1.519721	-2.003701	2.328584	0.000000	-0.241740	0.000000	-0.000012	-0.000000	0.000000	0.000000
60.810400	13.607167	22.971077	1.071327	-1.510265	2.236434	0.000000	-0.176608	0.000000	-0.000012	-0.000000	0.000000	0.000000
61.251360	12.841388	24.059264	0.671879	-0.948114	2.172535	0.000000	-0.113488	0.000000	-0.000012	-0.000001	0.000000	0.000000
61.692320	12.413073	24.630690	0.303128	-0.342824	2.136158	0.000000	-0.051660	0.000000	-0.000012	-0.000001	0.000000	0.000000
62.134530	12.302710	24.658812	-0.021703	0.217533	2.126895	0.000000	0.004363	0.000000	-0.000013	-0.000001	0.000000	0.000000
62.431853	12.322804	24.533211	-0.045882	0.204905	2.128193	0.000000	0.004363	0.000000	-0.000013	-0.000001	0.000000	0.000000
62.765186	12.362428	24.401327	-0.072989	0.190747	2.129647	0.000000	0.004363	0.000000	-0.000014	-0.000001	0.000000	0.000000
63.098520	12.420123	24.278881	-0.100096	0.176590	2.131102	0.000000	0.004363	0.000000	-0.000014	-0.000001	0.000000	0.000000
63.433103	12.496207	24.165468	-0.127305	0.162379	2.132563	0.000000	0.004363	0.000000	-0.000015	-0.000001	0.000000	0.000000
63.730426	12.579097	24.072665	-0.120631	0.090709	2.133860	0.000000	-0.000870	0.000000	-0.000015	-0.000001	0.000000	0.000000
64.171386	12.845710	23.727566	-0.486283	0.688922	2.147017	0.000000	0.060599	0.000000	-0.000016	-0.000002	0.000000	0.000000
64.612346	13.443339	22.866751	-0.874152	1.255789	2.187406	0.000000	0.122758	0.000000	-0.000017	-0.000002	0.000000	0.000000
65.053306	14.399289	21.529386	-1.301958	1.765518	2.255487	0.000000	0.186316	0.000000	-0.000018	-0.000003	0.000000	0.000000
65.494266	15.757235	19.776321	-1.789247	2.194919	2.352036	0.000000	0.251996	0.000000	-0.000019	-0.000003	0.000000	0.000000
65.940226	17.602376	17.662519	-2.362972	2.525203	2.479723	0.000000	0.320948	0.000000	-0.000021	-0.000004	0.000000	0.000000
66.489286	19.967809	15.297891	-1.919680	1.806903	2.635579	0.000000	0.245927	0.000000	-0.000022	-0.000003	0.000000	0.000000
67.038346	21.768662	13.647164	-1.340791	1.217305	2.748983	0.000000	0.166544	0.000000	-0.000024	-0.000002	0.000000	0.000000
67.587406	22.877732	12.592759	-0.667196	0.714413	2.817924	0.000000	0.084208	0.000000	-0.000025	-0.000001	0.000000	0.000000
68.136466	23.216679	12.059574	0.053527	0.262407	2.841180	0.000000	0.000377	0.000000	-0.000025	-0.000001	0.000000	0.000000
68.435038	23.224787	11.892089	-0.020008	0.267026	2.843510	0.000000	0.007802	0.000000	-0.000026	-0.000001	0.000000	0.000000
68.768372	23.242912	11.724081	-0.034366	0.236998	2.846111	0.000000	0.007802	0.000000	-0.000026	-0.000001	0.000000	0.000000
69.101705	23.270609	11.576092	-0.048725	0.206969	2.848712	0.000000	0.007802	0.000000	-0.000026	-0.000001	0.000000	0.000000
69.436288	23.308036	11.447680	-0.063137	0.176828	2.851322	0.000000	0.007802	0.000000	-0.000026	-0.000001	0.000000	0.000000
69.733611	23.349387	11.350494	-0.136965	0.179707	2.853642	0.000000	0.015260	0.000000	-0.000026	-0.000001	0.000000	0.000000
70.282671	23.098770	11.380515	0.590711	-0.234708	2.838837	0.000000	-0.069111	0.000000	-0.000027	0.000000	0.000000	0.000000
