#ParticleID	Turn	x[m]	xp	y[m]	yp	z[m]	dE[GeV]# s	beta_x	beta_y	alpha_x	alpha_y	D_x	D_y	D_px	D_py	orbit_x	orbit_px	orbit_y	orbit_py
0.300000	11.831107	24.950679	-0.013252	-0.027758	2.618268	0.000000	-0.000047	0.000000	0.000000	0.000000	0.000000	0.000000
0.601250	11.846763	24.971043	-0.038719	-0.039841	2.618254	0.000000	-0.000047	0.000000	0.000000	0.000000	0.000000	0.000000
0.898573	11.877260	24.998280	-0.034727	-0.113069	2.618240	0.000000	-0.006468	0.000000	0.000000	0.000000	0.000000	0.000000
1.339533	12.060232	24.820738	-0.381787	0.514164	2.631681	0.000000	0.067492	0.000000	0.000000	0.000000	0.000000	0.000000
1.780493	12.555789	24.098268	-0.746290	1.118003	2.677875	0.000000	0.142221	0.000000	0.000000	0.000000	0.000000	0.000000
2.221453	13.386571	22.863743	-1.144888	1.670974	2.757346	0.000000	0.218570	0.000000	0.000000	0.000000	0.000000	0.000000
2.662413	14.590535	21.173332	-1.595794	2.147917	2.871001	0.000000	0.297408	0.000000	0.000001	0.000000	0.000000	0.000000
3.108373	16.243493	19.079154	-2.123906	2.528262	3.021994	0.000000	0.380123	0.000000	0.000001	0.000000	0.000000	0.000000
3.657433	18.363088	16.727195	-1.713649	1.780633	3.205432	0.000000	0.287085	0.000000	0.000001	0.000000	0.000000	0.000000
4.206493	19.962634	15.122175	-1.182349	1.159836	3.336312	0.000000	0.188955	0.000000	0.000001	0.000000	0.000000	0.000000
4.755553	20.929145	14.149772	-0.567533	0.621651	3.412312	0.000000	0.087474	0.000000	0.000001	0.000000	0.000000	0.000000
5.304613	21.194354	13.740723	0.087370	0.127745	3.432084	0.000000	-0.015559	0.000000	0.000001	0.000000	0.000000	0.000000
5.603185	21.179460	13.649664	0.017892	0.141336	3.430116	0.000000	-0.006592	0.000000	0.000001	0.000000	0.000000	0.000000
5.936519	21.172780	13.563743	0.002148	0.116427	3.427919	0.000000	-0.006592	0.000000	0.000001	0.000000	0.000000	0.000000
6.269852	21.176595	13.494428	-0.013595	0.091519	3.425721	0.000000	-0.006592	0.000000	0.000001	0.000000	0.000000	0.000000
6.604435	21.190980	13.441552	-0.029398	0.066517	3.423516	0.000000	-0.006592	0.000000	0.000001	0.000000	0.000000	0.000000
6.901758	21.212637	13.408604	-0.098865	0.079333	3.421556	0.000000	0.002348	0.000000	0.000001	0.000000	0.000000	0.000000
7.450818	20.959597	13.581980	0.556997	-0.396966	3.394646	0.000000	-0.100228	0.000000	0.000001	0.000000	0.000000	0.000000
7.999878	20.003785	14.290754	1.173514	-0.901540	3.311820	0.000000	-0.201026	0.000000	0.000001	0.000000	0.000000	0.000000
8.548938	18.412713	15.585409	1.707141	-1.470328	3.174550	0.000000	-0.298259	0.000000	0.000001	0.000000	0.000000	0.000000
9.097998	16.298769	17.558163	2.120184	-2.143845	2.985268	0.000000	-0.390201	0.000000	0.000001	-0.000000	0.000000	0.000000
9.543958	14.649374	19.316055	1.591491	-1.781310	2.829559	0.000000	-0.308500	0.000000	0.000001	-0.000000	0.000000	0.000000
9.984918	13.449533	20.697223	1.139808	-1.338956	2.710768	0.000000	-0.230797	0.000000	0.000001	0.000000	0.000000	0.000000
10.425878	12.623658	21.659813	0.740198	-0.835680	2.625630	0.000000	-0.155722	0.000000	0.000001	0.000000	0.000000	0.000000
10.866838	12.134020	22.160028	0.374407	-0.294381	2.573174	0.000000	-0.082420	0.000000	0.000001	0.000000	0.000000	0.000000
11.309048	11.958109	22.174594	0.054941	0.205874	2.552784	0.000000	-0.016318	0.000000	0.000001	0.000000	0.000000	0.000000
11.606371	11.932853	22.056328	0.030002	0.191897	2.547932	0.000000	-0.016318	0.000000	0.000002	0.000000	0.000000	0.000000
12.086371	11.923377	21.882937	-0.010259	0.169333	2.540099	0.000000	-0.016318	0.000000	0.000002	0.000000	0.000000	0.000000
12.566371	11.952551	21.731208	-0.050521	0.146769	2.532266	0.000000	-0.016318	0.000000	0.000002	0.000000	0.000000	0.000000
13.046371	12.020377	21.601140	-0.090782	0.124206	2.524434	0.000000	-0.016318	0.000000	0.000002	0.000000	0.000000	0.000000
13.526371	12.126853	21.492733	-0.131043	0.101642	2.516601	0.000000	-0.016318	0.000000	0.000002	0.000000	0.000000	0.000000
14.007621	12.272408	21.405790	-0.171409	0.079019	2.508748	0.000000	-0.016318	0.000000	0.000002	0.000000	0.000000	0.000000
14.304943	12.381751	21.362957	-0.165985	0.012655	2.503896	0.000000	-0.022458	0.000000	0.000002	0.000000	0.000000	0.000000
14.745903	12.686869	21.117950	-0.528580	0.540852	2.509623	0.000000	0.048455	0.000000	0.000002	0.000000	0.000000	0.000000
15.186863	13.321166	20.416230	-0.915324	1.044440	2.546711	0.000000	0.119920	0.000000	0.000002	0.000000	0.000000	0.000000
15.627823	14.313622	19.289723	-1.343886	1.500507	2.615582	0.000000	0.192751	0.000000	0.000002	0.000000	0.000000	0.000000
16.068783	15.709579	17.789686	-1.833847	1.888302	2.717023	0.000000	0.267777	0.000000	0.000002	0.000000	0.000000	0.000000
16.514743	17.596470	15.962868	-2.412349	2.190930	2.853881	0.000000	0.346315	0.000000	0.000002	0.000000	0.000000	0.000000
17.063803	20.019644	13.922926	-1.974840	1.546335	3.020303	0.000000	0.259000	0.000000	0.000003	0.000000	0.000000	0.000000
17.612863	21.882474	12.526554	-1.397838	1.011881	3.137450	0.000000	0.167091	0.000000	0.000003	0.000000	0.000000	0.000000
18.161923	23.053379	11.674291	-0.722100	0.549502	3.203244	0.000000	0.072218	0.000000	0.000003	0.000000	0.000000	0.000000
18.710983	23.449651	11.305433	0.004644	0.126263	3.216519	0.000000	-0.023935	0.000000	0.000003	0.000000	0.000000	0.000000
19.009556	23.487277	11.220474	-0.069397	0.128750	3.211881	0.000000	-0.015531	0.000000	0.000003	0.000000	0.000000	0.000000
19.342889	23.538296	11.144707	-0.083658	0.098550	3.206704	0.000000	-0.015531	0.000000	0.000003	0.000000	0.000000	0.000000
19.676223	23.598821	11.089074	-0.097918	0.068350	3.201527	0.000000	-0.015531	0.000000	0.000003	0.000000	0.000000	0.000000
20.010806	23.669427	11.053342	-0.229504	0.092802	3.196350	0.000000	0.000305	0.000000	0.000003	0.000000	0.000000	0.000000
20.308129	23.809832	11.006224	-0.304936	0.094428	3.196441	0.000000	0.008657	0.000000	0.000003	0.000000	0.000000	0.000000
20.857189	23.734039	11.125089	0.442160	-0.312194	3.174980	0.000000	-0.086714	0.000000	0.000003	-0.000000	0.000000	0.000000
21.406249	22.850209	11.699991	1.158025	-0.741052	3.101502	0.000000	-0.180546	0.000000	0.000003	-0.000000	0.000000	0.000000
21.955309	21.220772	12.771877	1.792092	-1.222693	2.977308	0.000000	-0.271176	0.000000	0.000003	-0.000000	0.000000	0.000000
22.504369	18.960823	14.417098	2.299575	-1.791425	2.804601	0.000000	-0.356996	0.000000	0.000003	-0.000000	0.000000	0.000000
22.950329	17.179946	15.894033	1.707880	-1.506415	2.662686	0.000000	-0.279802	0.000000	0.000003	-0.000000	0.000000	0.000000
23.391289	15.903011	17.071529	1.198911	-1.153723	2.555623	0.000000	-0.206249	0.000000	0.000003	-0.000000	0.000000	0.000000
23.832249	15.049188	17.913554	0.744717	-0.748537	2.480446	0.000000	-0.135046	0.000000	0.000003	-0.000000	0.000000	0.000000
24.273209	14.579468	18.381796	0.324546	-0.309293	2.436298	0.000000	-0.065380	0.000000	0.000002	-0.000000	0.000000	0.000000
24.715418	14.472503	18.454706	-0.045393	0.098699	2.422674	0.000000	-0.002400	0.000000	0.000002	0.000000	0.000000	0.000000
25.012741	14.505617	18.400852	-0.065979	0.082431	2.421960	0.000000	-0.002400	0.000000	0.000002	0.000000	0.000000	0.000000
25.346075	14.557297	18.351977	-0.089059	0.064193	2.421160	0.000000	-0.002400	0.000000	0.000003	0.000000	0.000000	0.000000
25.679408	14.624363	18.315262	-0.112139	0.045954	2.420360	0.000000	-0.002400	0.000000	0.000003	0.000000	0.000000	0.000000
26.013991	14.706855	18.291006	-0.015993	-0.120738	2.419533	0.000000	-0.022029	0.000000	0.000003	-0.000000	0.000000	0.000000
26.311314	14.722378	18.367706	-0.000112	-0.182272	2.412983	0.000000	-0.027946	0.000000	0.000003	-0.000000	0.000000	0.000000
26.752274	14.903891	18.329201	-0.413081	0.269260	2.415767	0.000000	0.040585	0.000000	0.000003	0.000000	0.000000	0.000000
27.193234	15.456524	17.896383	-0.844923	0.708541	2.448844	0.000000	0.109579	0.000000	0.000003	0.000000	0.000000	0.000000
27.634194	16.405525	17.088944	-1.315366	1.115584	2.512590	0.000000	0.179821	0.000000	0.000003	0.000000	0.000000	0.000000
28.075154	17.794251	15.943622	-1.845905	1.471869	2.607731	0.000000	0.252110	0.000000	0.000003	0.000000	0.000000	0.000000
28.521114	19.710283	14.495279	-2.465734	1.762099	2.736955	0.000000	0.327715	0.000000	0.000003	0.000000	0.000000	0.000000
29.070174	22.145565	12.881378	-1.943376	1.194642	2.894231	0.000000	0.244336	0.000000	0.000003	0.000000	0.000000	0.000000
29.619234	23.928001	11.840510	-1.283748	0.712276	3.004469	0.000000	0.156624	0.000000	0.000003	0.000000	0.000000	0.000000
30.168294	24.931689	11.298536	-0.533442	0.280644	3.065713	0.000000	0.066134	0.000000	0.000003	0.000000	0.000000	0.000000
30.717354	25.085732	11.216854	0.254544	-0.130999	3.076877	0.000000	-0.025529	0.000000	0.000003	-0.000000	0.000000	0.000000
31.015927	24.976552	11.285609	0.176674	-0.128585	3.071655	0.000000	-0.017490	0.000000	0.000003	-0.000000	0.000000	0.000000
31.349260	24.863356	11.381340	0.162911	-0.158610	3.065825	0.000000	-0.017490	0.000000	0.000003	-0.000000	0.000000	0.000000
31.682593	24.759336	11.497088	0.149149	-0.188634	3.059995	0.000000	-0.017490	0.000000	0.000003	-0.000000	0.000000	0.000000
32.017177	24.664153	11.633399	0.135335	-0.218771	3.054143	0.000000	-0.017490	0.000000	0.000003	-0.000000	0.000000	0.000000
32.314499	24.587326	11.771453	0.058819	-0.214796	3.048943	0.000000	-0.009524	0.000000	0.000003	-0.000000	0.000000	0.000000
32.863559	24.101548	12.246680	0.820689	-0.655841	3.018838	0.000000	-0.099975	0.000000	0.000003	-0.000000	0.000000	0.000000
33.412619	22.806181	13.228882	1.524590	-1.143599	2.939484	0.000000	-0.188653	0.000000	0.000003	-0.000000	0.000000	0.000000
33.961679	20.792723	14.788021	2.120801	-1.712813	2.812289	0.000000	-0.273985	0.000000	0.000003	-0.000000	0.000000	0.000000
34.510739	18.203396	17.035149	2.567210	-2.404027	2.639509	0.000000	-0.354457	0.000000	0.000003	-0.000000	0.000000	0.000000
34.956699	16.190229	19.045048	1.963197	-2.084058	2.497774	0.000000	-0.281543	0.000000	0.000002	-0.000000	0.000000	0.000000
35.397659	14.689130	20.706767	1.453878	-1.670015	2.389003	0.000000	-0.212264	0.000000	0.000002	-0.000000	0.000000	0.000000
35.838619	13.606332	21.968304	1.010983	-1.179987	2.310220	0.000000	-0.145402	0.000000	0.000002	-0.000000	0.000000	0.000000
36.279579	12.892365	22.772261	0.614278	-0.636271	2.260528	0.000000	-0.080196	0.000000	0.000002	-0.000000	0.000000	0.000000
36.721789	12.513920	23.082357	0.276218	-0.120263	2.239333	0.000000	-0.021395	0.000000	0.000002	-0.000000	0.000000	0.000000
37.019112	12.357271	23.157756	0.250646	-0.133330	2.232972	0.000000	-0.021395	0.000000	0.000002	-0.000000	0.000000	0.000000
37.352445	12.199731	23.251526	0.221977	-0.147980	2.225840	0.000000	-0.021395	0.000000	0.000002	-0.000000	0.000000	0.000000
37.685779	12.061303	23.355062	0.193307	-0.162630	2.218709	0.000000	-0.021395	0.000000	0.000002	-0.000000	0.000000	0.000000
38.020362	11.941576	23.468809	0.164530	-0.177335	2.211550	0.000000	-0.021395	0.000000	0.000002	-0.000000	0.000000	0.000000
38.317684	11.851342	23.578145	0.168021	-0.248222	2.205189	0.000000	-0.026803	0.000000	0.000002	-0.000000	0.000000	0.000000
38.758644	11.854333	23.535918	-0.174829	0.343619	2.207295	0.000000	0.036363	0.000000	0.000002	-0.000000	0.000000	0.000000
39.199604	12.162055	22.976662	-0.525666	0.919824	2.237319	0.000000	0.099943	0.000000	0.000002	-0.000000	0.000000	0.000000
39.640564	12.788569	21.925823	-0.900519	1.454179	2.295603	0.000000	0.164661	0.000000	0.000002	-0.000000	0.000000	0.000000
40.081524	13.762498	20.431213	-1.316515	1.922369	2.382812	0.000000	0.231255	0.000000	0.000002	0.000000	0.000000	0.000000
40.527484	15.145900	18.538268	-1.796481	2.304371	2.501410	0.000000	0.300887	0.000000	0.000002	0.000000	0.000000	0.000000
41.076544	16.911541	16.411174	-1.400236	1.592560	2.646089	0.000000	0.225345	0.000000	0.000002	0.000000	0.000000	0.000000
41.625604	18.184838	14.999232	-0.905085	0.994183	2.748131	0.000000	0.145806	0.000000	0.000002	-0.000000	0.000000	0.000000
42.174664	18.875852	14.201870	-0.346003	0.466619	2.805726	0.000000	0.063680	0.000000	0.000002	-0.000000	0.000000	0.000000
42.723724	18.935771	13.962296	0.237518	-0.027708	2.817853	0.000000	-0.019574	0.000000	0.000001	-0.000000	0.000000	0.000000
43.022297	18.828357	13.963443	0.171718	-0.012614	2.814207	0.000000	-0.012212	0.000000	0.000001	-0.000000	0.000000	0.000000
43.502297	18.676105	13.992055	0.145473	-0.046995	2.808345	0.000000	-0.012212	0.000000	0.000001	-0.000000	0.000000	0.000000
43.982297	18.549049	14.053672	0.119227	-0.081376	2.802483	0.000000	-0.012212	0.000000	0.000001	-0.000000	0.000000	0.000000
44.462297	18.447188	14.148296	0.092982	-0.115756	2.796621	0.000000	-0.012212	0.000000	0.000001	-0.000000	0.000000	0.000000
44.942297	18.370523	14.275925	0.066737	-0.150137	2.790760	0.000000	-0.012212	0.000000	0.000001	-0.000000	0.000000	0.000000
45.423547	18.319179	14.436842	-0.050340	-0.113079	2.784900	0.000000	0.001586	0.000000	0.000001	-0.000000	0.000000	0.000000
45.720870	18.353951	14.510286	-0.114566	-0.096025	2.785372	0.000000	0.008864	0.000000	0.000001	-0.000000	0.000000	0.000000
46.269930	18.170707	14.896455	0.446332	-0.611455	2.767670	0.000000	-0.073249	0.000000	0.000001	-0.000000	0.000000	0.000000
46.818990	17.385275	15.869081	0.975703	-1.170439	2.705175	0.000000	-0.154062	0.000000	0.000001	-0.000000	0.000000	0.000000
47.368050	16.053134	17.497441	1.436155	-1.812790	2.598994	0.000000	-0.232142	0.000000	0.000001	-0.000000	0.000000	0.000000
47.917110	14.268381	19.897520	1.795165	-2.584263	2.451011	0.000000	-0.306105	0.000000	0.000001	-0.000000	0.000000	0.000000
48.363070	12.879352	22.031510	1.330563	-2.180780	2.329792	0.000000	-0.237813	0.000000	0.000000	-0.000000	0.000000	0.000000
48.804030	11.886075	23.740172	0.930517	-1.679343	2.239384	0.000000	-0.172628	0.000000	0.000000	-0.000000	0.000000	0.000000
49.244990	11.225597	24.971095	0.572983	-1.101497	2.177259	0.000000	-0.109409	0.000000	0.000000	-0.000000	0.000000	0.000000
49.685950	10.867744	25.668273	0.241628	-0.473534	2.142711	0.000000	-0.047435	0.000000	0.000000	-0.000000	0.000000	0.000000
50.128160	10.796296	25.799704	-0.052329	0.112657	2.135357	0.000000	0.008761	0.000000	0.000000	-0.000000	0.000000	0.000000
50.425482	10.835623	25.736183	-0.079943	0.100986	2.137962	0.000000	0.008761	0.000000	0.000000	-0.000000	0.000000	0.000000
50.758816	10.899239	25.673220	-0.110903	0.087902	2.140882	0.000000	0.008761	0.000000	-0.000000	-0.000000	0.000000	0.000000
51.092149	10.983493	25.618980	-0.141862	0.074818	2.143803	0.000000	0.008761	0.000000	-0.000000	-0.000000	0.000000	0.000000
51.426732	11.088595	25.573827	-0.082980	-0.145782	2.146713	0.000000	-0.008654	0.000000	-0.000000	-0.000000	0.000000	0.000000
51.724055	11.145966	25.664046	-0.082644	-0.220591	2.144140	0.000000	-0.013912	0.000000	-0.000000	-0.000000	0.000000	0.000000
52.165015	11.364343	25.573103	-0.414467	0.426045	2.151593	0.000000	0.047749	0.000000	-0.000000	-0.000000	0.000000	0.000000
52.605975	11.882574	24.918281	-0.765225	1.053296	2.186330	0.000000	0.109953	0.000000	-0.000000	-0.000000	0.000000	0.000000
53.046935	12.724334	23.729374	-1.150943	1.632623	2.248746	0.000000	0.173410	0.000000	-0.000000	-0.000000	0.000000	0.000000
53.487895	13.928081	22.060476	-1.589246	2.137667	2.339554	0.000000	0.238842	0.000000	-0.000001	-0.000000	0.000000	0.000000
53.933855	15.569440	19.962565	-2.104395	2.546783	2.461290	0.000000	0.307393	0.000000	-0.000001	-0.000000	0.000000	0.000000
54.482915	17.682579	17.601986	-1.721472	1.777905	2.609887	0.000000	0.233087	0.000000	-0.000001	-0.000000	0.000000	0.000000
55.031975	19.305558	16.011650	-1.216953	1.135662	2.716489	0.000000	0.154647	0.000000	-0.000001	-0.000000	0.000000	0.000000
55.581035	20.323737	15.078282	-0.626475	0.574311	2.779205	0.000000	0.073464	0.000000	-0.000001	-0.000000	0.000000	0.000000
56.130095	20.665198	14.735399	0.008255	0.053866	2.796923	0.000000	-0.009022	0.000000	-0.000001	-0.000000	0.000000	0.000000
56.428668	20.696834	14.686344	-0.060218	0.071932	2.796411	0.000000	-0.001714	0.000000	-0.000001	-0.000000	0.000000	0.000000
56.762001	20.742368	14.645994	-0.076382	0.049118	2.795840	0.000000	-0.001714	0.000000	-0.000001	-0.000000	0.000000	0.000000
57.095334	20.798677	14.620854	-0.092546	0.026303	2.795268	0.000000	-0.001714	0.000000	-0.000001	-0.000000	0.000000	0.000000
57.429918	20.866035	14.610914	-0.108771	0.003404	2.794695	0.000000	-0.001714	0.000000	-0.000001	-0.000000	0.000000	0.000000
57.727240	20.935001	14.614941	-0.177888	0.021240	2.794185	0.000000	0.005587	0.000000	-0.000001	-0.000000	0.000000	0.000000
58.276300	20.773119	14.872346	0.470978	-0.492818	2.774612	0.000000	-0.076781	0.000000	-0.000001	-0.000000	0.000000	0.000000
58.825360	19.912835	15.710097	1.086577	-1.041979	2.710121	0.000000	-0.157786	0.000000	-0.000001	-0.000000	0.000000	0.000000
59.374420	18.414916	17.187865	1.625426	-1.665358	2.601858	0.000000	-0.235993	0.000000	-0.000001	-0.000000	0.000000	0.000000
59.923480	16.385167	19.410908	2.049462	-2.407357	2.451741	0.000000	-0.310014	0.000000	-0.000001	0.000000	0.000000	0.000000
60.369440	14.796391	21.386849	1.525752	-2.004701	2.328779	0.000000	-0.241727	0.000000	-0.000001	0.000000	0.000000	0.000000
60.810400	13.653474	22.943586	1.075962	-1.512202	2.236636	0.000000	-0.176589	0.000000	-0.000001	-0.000000	0.000000	0.000000
61.251360	12.884143	24.033864	0.675330	-0.950899	2.172746	0.000000	-0.113464	0.000000	-0.000001	-0.000000	0.000000	0.000000
61.692320	12.453248	24.608075	0.305552	-0.346331	2.136381	0.000000	-0.051630	0.000000	-0.000002	-0.000000	0.000000	0.000000
62.134530	12.341152	24.639560	-0.020103	0.213517	2.127132	0.000000	0.004399	0.000000	-0.000002	-0.000000	0.000000	0.000000
62.431853	12.360272	24.516345	-0.044205	0.200900	2.128440	0.000000	0.004399	0.000000	-0.000002	-0.000000	0.000000	0.000000
62.765186	12.398749	24.387127	-0.071225	0.186754	2.129906	0.000000	0.004399	0.000000	-0.000002	-0.000000	0.000000	0.000000
63.098520	12.455239	24.267339	-0.098246	0.172609	2.131372	0.000000	0.004399	0.000000	-0.000002	-0.000000	0.000000	0.000000
63.433103	12.530057	24.156585	-0.125368	0.158411	2.132844	0.000000	0.004399	0.000000	-0.000002	-0.000000	0.000000	0.000000
63.730426	12.611773	24.066138	-0.118542	0.086776	2.134152	0.000000	-0.000835	0.000000	-0.000002	-0.000000	0.000000	0.000000
64.171386	12.876854	23.724552	-0.484885	0.684918	2.147326	0.000000	0.060642	0.000000	-0.000002	-0.000000	0.000000	0.000000
64.612346	13.473532	22.867232	-0.873382	1.251897	2.187735	0.000000	0.122810	0.000000	-0.000002	-0.000000	0.000000	0.000000
65.053306	14.429067	21.533185	-1.301780	1.761915	2.255840	0.000000	0.186377	0.000000	-0.000002	-0.000000	0.000000	0.000000
65.494266	15.787113	19.783109	-1.789654	2.191768	2.352416	0.000000	0.252066	0.000000	-0.000002	-0.000000	0.000000	0.000000
65.940226	17.632888	17.671856	-2.363986	2.522655	2.480136	0.000000	0.321028	0.000000	-0.000002	-0.000000	0.000000	0.000000
66.489286	19.998772	15.309938	-1.919478	1.804487	2.636030	0.000000	0.245993	0.000000	-0.000003	-0.000000	0.000000	0.000000
67.038346	21.798740	13.661870	-1.339388	1.214848	2.749465	0.000000	0.166595	0.000000	-0.000003	-0.000000	0.000000	0.000000
67.587406	22.905652	12.610264	-0.664691	0.711740	2.818429	0.000000	0.084243	0.000000	-0.000003	-0.000000	0.000000	0.000000
68.136466	23.241321	12.080218	0.056957	0.259328	2.841699	0.000000	0.000396	0.000000	-0.000003	-0.000000	0.000000	0.000000
68.435038	23.247408	11.914517	-0.016616	0.264085	2.844034	0.000000	0.007821	0.000000	-0.000003	-0.000000	0.000000	0.000000
68.768372	23.263266	11.748436	-0.030959	0.234157	2.846641	0.000000	0.007821	0.000000	-0.000003	-0.000000	0.000000	0.000000
69.101705	23.288686	11.602308	-0.045301	0.204229	2.849248	0.000000	0.007821	0.000000	-0.000003	-0.000000	0.000000	0.000000
69.436288	23.323817	11.475696	-0.059698	0.174188	2.851865	0.000000	0.007821	0.000000	-0.000003	-0.000000	0.000000	0.000000
69.733611	23.363119	11.380052	-0.133536	0.177228	2.854190	0.000000	0.015278	0.000000	-0.000003	-0.000000	0.000000	0.000000
70.282671	23.108518	11.413260	0.594494	-0.238065	2.839390	0.000000	-0.069111	0.000000	-0.000003	0.000000	0.000000	0.000000
