#ParticleID	Turn	x[m]	xp	y[m]	yp	z[m]	dE[GeV]# s	beta_x	beta_y	alpha_x	alpha_y	D_x	D_y	D_px	D_py	orbit_x	orbit_px	orbit_y	orbit_py
0.300000	11.806605	25.047755	-0.010291	-0.026948	2.618174	0.000000	-0.000011	0.000000	-0.000002	0.000002	0.000000	0.000000
0.601250	11.820493	25.067617	-0.035809	-0.038984	2.618170	0.000000	-0.000011	0.000000	-0.000001	0.000002	0.000000	0.000000
0.898573	11.849275	25.094330	-0.031936	-0.112401	2.618167	0.000000	-0.006431	0.000000	-0.000001	0.000002	0.000000	0.000000
1.339533	12.029483	24.915079	-0.378286	0.517356	2.631624	0.000000	0.067527	0.000000	0.000000	0.000002	0.000000	0.000000
1.780493	12.521583	24.188731	-0.741919	1.123573	2.677832	0.000000	0.142255	0.000000	0.000001	0.000002	0.000000	0.000000
2.221453	13.348055	22.948334	-1.139448	1.678669	2.757317	0.000000	0.218603	0.000000	0.000002	0.000002	0.000000	0.000000
2.662413	14.546661	21.250325	-1.589036	2.157387	2.870985	0.000000	0.297440	0.000000	0.000002	0.000002	0.000000	0.000000
3.108373	16.192884	19.147063	-2.115508	2.539079	3.021992	0.000000	0.380155	0.000000	0.000003	0.000002	0.000000	0.000000
3.657433	18.303919	16.784745	-1.706548	1.788793	3.205447	0.000000	0.287117	0.000000	0.000004	0.000002	0.000000	0.000000
4.206493	19.896614	15.171950	-1.177046	1.165920	3.336344	0.000000	0.188987	0.000000	0.000005	0.000002	0.000000	0.000000
4.755553	20.858468	14.193802	-0.564403	0.626092	3.412360	0.000000	0.087504	0.000000	0.000006	0.000001	0.000000	0.000000
5.304613	21.121542	13.780628	0.088106	0.130860	3.432147	0.000000	-0.015531	0.000000	0.000007	0.000001	0.000000	0.000000
5.603185	21.106107	13.687636	0.018771	0.144594	3.430187	0.000000	-0.006564	0.000000	0.000007	0.000001	0.000000	0.000000
5.936519	21.098859	13.599527	0.002973	0.119732	3.427999	0.000000	-0.006564	0.000000	0.000008	0.000001	0.000000	0.000000
6.269852	21.102144	13.527992	-0.012826	0.094870	3.425810	0.000000	-0.006564	0.000000	0.000008	0.000001	0.000000	0.000000
6.604435	21.116033	13.472858	-0.028684	0.069915	3.423614	0.000000	-0.006564	0.000000	0.000008	0.000001	0.000000	0.000000
6.901758	21.137280	13.437877	-0.098000	0.082847	3.421662	0.000000	0.002376	0.000000	0.000009	0.000001	0.000000	0.000000
7.450818	20.884681	13.607833	0.555334	-0.394214	3.394765	0.000000	-0.100204	0.000000	0.000009	0.000001	0.000000	0.000000
7.999878	19.932036	14.313912	1.169442	-0.899355	3.311951	0.000000	-0.201006	0.000000	0.000010	0.000001	0.000000	0.000000
8.548938	18.346636	15.606408	1.700946	-1.468555	3.174690	0.000000	-0.298243	0.000000	0.000010	0.000000	0.000000	0.000000
9.097998	16.240465	17.577380	2.112304	-2.142356	2.985415	0.000000	-0.390190	0.000000	0.000010	0.000000	0.000000	0.000000
9.543958	14.597308	19.333591	1.585333	-1.779044	2.829712	0.000000	-0.308485	0.000000	0.000010	0.000000	0.000000	0.000000
9.984918	13.402251	20.712458	1.135075	-1.336022	2.710929	0.000000	-0.230778	0.000000	0.000011	0.000001	0.000000	0.000000
10.425878	12.580003	21.672214	0.736676	-0.832212	2.625799	0.000000	-0.155699	0.000000	0.000011	0.000001	0.000000	0.000000
10.866838	12.092998	22.169192	0.371934	-0.290537	2.573354	0.000000	-0.082393	0.000000	0.000011	0.000001	0.000000	0.000000
11.309048	11.918852	22.180255	0.053304	0.209911	2.552976	0.000000	-0.016285	0.000000	0.000012	0.000001	0.000000	0.000000
11.606371	11.894593	22.059594	0.028288	0.195915	2.548134	0.000000	-0.016285	0.000000	0.000012	0.000001	0.000000	0.000000
12.086371	11.886823	21.882361	-0.012099	0.173321	2.540316	0.000000	-0.016285	0.000000	0.000013	0.000001	0.000000	0.000000
12.566371	11.917823	21.726819	-0.052486	0.150726	2.532498	0.000000	-0.016285	0.000000	0.000014	0.000001	0.000000	0.000000
13.046371	11.987595	21.592967	-0.092872	0.128132	2.524680	0.000000	-0.016285	0.000000	0.000014	0.000001	0.000000	0.000000
13.526371	12.096138	21.480805	-0.133259	0.105537	2.516863	0.000000	-0.016285	0.000000	0.000015	0.000001	0.000000	0.000000
14.007621	12.243887	21.390127	-0.173751	0.082884	2.509025	0.000000	-0.016285	0.000000	0.000016	0.000001	0.000000	0.000000
14.304943	12.354645	21.345002	-0.168475	0.016553	2.504182	0.000000	-0.022426	0.000000	0.000016	0.000001	0.000000	0.000000
14.745903	12.661715	21.096797	-0.530533	0.544180	2.509924	0.000000	0.048495	0.000000	0.000017	0.000002	0.000000	0.000000
15.186863	13.297532	20.392449	-0.916829	1.047047	2.547031	0.000000	0.119968	0.000000	0.000018	0.000002	0.000000	0.000000
15.627823	14.291145	19.264006	-1.345013	1.502274	2.615925	0.000000	0.192807	0.000000	0.000019	0.000003	0.000000	0.000000
16.068783	15.687949	17.762811	-1.834646	1.889149	2.717391	0.000000	0.267842	0.000000	0.000020	0.000003	0.000000	0.000000
16.514743	17.575421	15.935666	-2.412858	2.190812	2.854280	0.000000	0.346391	0.000000	0.000021	0.000004	0.000000	0.000000
17.063803	19.999702	13.895549	-1.976331	1.546773	3.020738	0.000000	0.259062	0.000000	0.000023	0.000003	0.000000	0.000000
17.612863	21.864664	12.498378	-1.400206	1.012908	3.137914	0.000000	0.167139	0.000000	0.000025	0.000002	0.000000	0.000000
18.161923	23.038577	11.644634	-0.725177	0.551189	3.203729	0.000000	0.072251	0.000000	0.000026	0.000001	0.000000	0.000000
18.710983	23.438521	11.273508	0.001075	0.128731	3.217017	0.000000	-0.023919	0.000000	0.000026	0.000001	0.000000	0.000000
19.009556	23.478258	11.187157	-0.072937	0.131033	3.212384	0.000000	-0.015515	0.000000	0.000026	0.000001	0.000000	0.000000
19.342889	23.531640	11.109904	-0.087210	0.100725	3.207212	0.000000	-0.015515	0.000000	0.000027	0.000001	0.000000	0.000000
19.676223	23.594537	11.052857	-0.101483	0.070417	3.202040	0.000000	-0.015515	0.000000	0.000027	0.000001	0.000000	0.000000
20.010806	23.667533	11.015778	-0.233072	0.094575	3.196869	0.000000	0.000324	0.000000	0.000027	0.000001	0.000000	0.000000
20.308129	23.810066	10.967636	-0.308514	0.095993	3.196965	0.000000	0.008675	0.000000	0.000027	0.000001	0.000000	0.000000
20.857189	23.738178	11.084181	0.438667	-0.309508	3.175509	0.000000	-0.086713	0.000000	0.000027	-0.000000	0.000000	0.000000
21.406249	22.858024	11.655435	1.154863	-0.737055	3.102026	0.000000	-0.180562	0.000000	0.000027	-0.000001	0.000000	0.000000
21.955309	21.231772	12.722088	1.789485	-1.217101	2.977819	0.000000	-0.271209	0.000000	0.000026	-0.000002	0.000000	0.000000
22.504369	18.974294	14.360115	2.297706	-1.783838	2.805092	0.000000	-0.357045	0.000000	0.000025	-0.000003	0.000000	0.000000
22.950329	17.195115	15.830849	1.705924	-1.500153	2.663158	0.000000	-0.279839	0.000000	0.000024	-0.000002	0.000000	0.000000
23.391289	15.919976	17.003511	1.196777	-1.149066	2.556082	0.000000	-0.206274	0.000000	0.000023	-0.000001	0.000000	0.000000
23.832249	15.068148	17.842217	0.742308	-0.745697	2.480897	0.000000	-0.135058	0.000000	0.000023	-0.000001	0.000000	0.000000
24.273209	14.600713	18.308807	0.321753	-0.308399	2.436747	0.000000	-0.065381	0.000000	0.000023	-0.000000	0.000000	0.000000
24.715418	14.496436	18.381806	-0.048647	0.097794	2.423124	0.000000	-0.002389	0.000000	0.000023	0.000000	0.000000	0.000000
25.012741	14.531476	18.328508	-0.069206	0.081464	2.422414	0.000000	-0.002389	0.000000	0.000023	0.000000	0.000000	0.000000
25.346075	14.585296	18.280301	-0.092254	0.063157	2.421617	0.000000	-0.002389	0.000000	0.000023	0.000000	0.000000	0.000000
25.679408	14.654482	18.244299	-0.115303	0.044850	2.420821	0.000000	-0.002389	0.000000	0.000023	0.000000	0.000000	0.000000
26.013991	14.739080	18.220805	-0.018865	-0.121342	2.419997	0.000000	-0.022022	0.000000	0.000023	0.000000	0.000000	0.000000
26.311314	14.756298	18.297884	-0.002865	-0.182762	2.413449	0.000000	-0.027939	0.000000	0.000023	0.000000	0.000000	0.000000
26.752274	14.940615	18.260646	-0.416710	0.266889	2.416238	0.000000	0.040604	0.000000	0.000023	0.000001	0.000000	0.000000
27.193234	15.496894	17.830712	-0.849594	0.704396	2.449326	0.000000	0.109610	0.000000	0.000024	0.000001	0.000000	0.000000
27.634194	16.450551	17.027644	-1.321292	1.109855	2.513088	0.000000	0.179864	0.000000	0.000024	0.000002	0.000000	0.000000
28.075154	17.845155	15.887980	-1.853357	1.464815	2.608251	0.000000	0.252167	0.000000	0.000025	0.000003	0.000000	0.000000
28.521114	19.768647	14.446405	-2.475069	1.754040	2.737501	0.000000	0.327786	0.000000	0.000027	0.000003	0.000000	0.000000
29.070174	22.213411	12.840283	-1.951205	1.188447	2.894811	0.000000	0.244389	0.000000	0.000028	0.000002	0.000000	0.000000
29.619234	24.003360	11.805400	-1.289518	0.707505	3.005072	0.000000	0.156658	0.000000	0.000029	0.000001	0.000000	0.000000
30.168294	25.012060	11.268043	-0.536746	0.276957	3.066328	0.000000	0.066148	0.000000	0.000030	0.000000	0.000000	0.000000
30.717354	25.168262	11.189938	0.253940	-0.133865	3.077494	0.000000	-0.025535	0.000000	0.000030	-0.000001	0.000000	0.000000
31.015927	25.059548	11.260474	0.175913	-0.131609	3.072270	0.000000	-0.017496	0.000000	0.000030	-0.000000	0.000000	0.000000
31.349260	24.946844	11.358252	0.162200	-0.161724	3.066438	0.000000	-0.017496	0.000000	0.000029	-0.000000	0.000000	0.000000
31.682593	24.843282	11.476106	0.148487	-0.191839	3.060606	0.000000	-0.017496	0.000000	0.000029	-0.000000	0.000000	0.000000
32.017177	24.748525	11.614591	0.134722	-0.222066	3.054752	0.000000	-0.017496	0.000000	0.000029	-0.000000	0.000000	0.000000
32.314499	24.672050	11.754629	0.058042	-0.218223	3.049550	0.000000	-0.009530	0.000000	0.000029	-0.000000	0.000000	0.000000
32.863559	24.185575	12.233440	0.822727	-0.658981	3.019437	0.000000	-0.100001	0.000000	0.000029	-0.000001	0.000000	0.000000
33.412619	22.886480	13.219037	1.529299	-1.146677	2.940064	0.000000	-0.188698	0.000000	0.000028	-0.000002	0.000000	0.000000
33.961679	20.866528	14.781622	2.127848	-1.716048	2.812840	0.000000	-0.274049	0.000000	0.000026	-0.000003	0.000000	0.000000
34.510739	18.268398	17.032494	2.576097	-2.407650	2.640022	0.000000	-0.354538	0.000000	0.000024	-0.000004	0.000000	0.000000
34.956699	16.248199	19.045846	1.970131	-2.088145	2.498254	0.000000	-0.281611	0.000000	0.000023	-0.000003	0.000000	0.000000
35.397659	14.741719	20.711305	1.459193	-1.674375	2.389457	0.000000	-0.212320	0.000000	0.000021	-0.000003	0.000000	0.000000
35.838619	13.654856	21.976736	1.014921	-1.184422	2.310653	0.000000	-0.145446	0.000000	0.000020	-0.000002	0.000000	0.000000
36.279579	12.937955	22.784562	0.617019	-0.640579	2.260944	0.000000	-0.080230	0.000000	0.000019	-0.000002	0.000000	0.000000
36.721789	12.557567	23.098340	0.277990	-0.124277	2.239738	0.000000	-0.021418	0.000000	0.000019	-0.000001	0.000000	0.000000
37.019112	12.399845	23.176127	0.252483	-0.137348	2.233370	0.000000	-0.021418	0.000000	0.000018	-0.000001	0.000000	0.000000
37.352445	12.241055	23.272577	0.223888	-0.152002	2.226231	0.000000	-0.021418	0.000000	0.000018	-0.000001	0.000000	0.000000
37.685779	12.101328	23.378796	0.195292	-0.166656	2.219092	0.000000	-0.021418	0.000000	0.000017	-0.000001	0.000000	0.000000
38.020362	11.980249	23.495238	0.166589	-0.181365	2.211926	0.000000	-0.021418	0.000000	0.000017	-0.000001	0.000000	0.000000
38.317684	11.888771	23.606972	0.170233	-0.252318	2.205558	0.000000	-0.026826	0.000000	0.000017	-0.000001	0.000000	0.000000
38.758644	11.890183	23.568009	-0.173446	0.340342	2.207656	0.000000	0.036349	0.000000	0.000016	-0.000001	0.000000	0.000000
39.199604	12.197028	23.011225	-0.525050	0.917517	2.237677	0.000000	0.099938	0.000000	0.000016	-0.000000	0.000000	0.000000
39.640564	12.823324	21.961952	-0.900641	1.452946	2.295961	0.000000	0.164666	0.000000	0.000016	-0.000000	0.000000	0.000000
40.081524	13.797687	20.467933	-1.317380	1.922266	2.383174	0.000000	0.231269	0.000000	0.000016	0.000000	0.000000	0.000000
40.527484	15.182209	18.574567	-1.798135	2.305412	2.501780	0.000000	0.300911	0.000000	0.000016	0.000001	0.000000	0.000000
41.076544	16.948922	16.446840	-1.400520	1.592679	2.646469	0.000000	0.225356	0.000000	0.000016	0.000000	0.000000	0.000000
41.625604	18.221766	15.035266	-0.903980	0.993389	2.748514	0.000000	0.145805	0.000000	0.000016	-0.000000	0.000000	0.000000
42.174664	18.910834	14.239299	-0.343587	0.464856	2.806105	0.000000	0.063667	0.000000	0.000016	-0.000001	0.000000	0.000000
42.723724	18.967454	14.002247	0.241075	-0.030566	2.818221	0.000000	-0.019600	0.000000	0.000016	-0.000001	0.000000	0.000000
43.022297	18.857959	14.005022	0.175205	-0.015309	2.814568	0.000000	-0.012237	0.000000	0.000015	-0.000001	0.000000	0.000000
43.502297	18.702355	14.036173	0.148970	-0.049590	2.808695	0.000000	-0.012237	0.000000	0.000015	-0.000001	0.000000	0.000000
43.982297	18.571937	14.100235	0.122735	-0.083872	2.802821	0.000000	-0.012237	0.000000	0.000014	-0.000001	0.000000	0.000000
44.462297	18.466704	14.197207	0.096500	-0.118153	2.796948	0.000000	-0.012237	0.000000	0.000013	-0.000001	0.000000	0.000000
44.942297	18.386656	14.327089	0.070265	-0.152435	2.791075	0.000000	-0.012237	0.000000	0.000013	-0.000001	0.000000	0.000000
45.423547	18.331911	14.490169	-0.046864	-0.115012	2.785203	0.000000	0.001562	0.000000	0.000012	-0.000001	0.000000	0.000000
45.720870	18.364612	14.564742	-0.111097	-0.097751	2.785668	0.000000	0.008840	0.000000	0.000012	-0.000001	0.000000	0.000000
46.269930	18.177392	14.953728	0.450060	-0.614889	2.767951	0.000000	-0.073282	0.000000	0.000011	-0.000002	0.000000	0.000000
46.818990	17.387844	15.931167	0.979426	-1.175823	2.705436	0.000000	-0.154104	0.000000	0.000010	-0.000002	0.000000	0.000000
47.368050	16.051737	17.566679	1.439611	-1.820509	2.599231	0.000000	-0.232192	0.000000	0.000009	-0.000002	0.000000	0.000000
47.917110	14.263447	19.976759	1.798109	-2.594866	2.451220	0.000000	-0.306162	0.000000	0.000008	-0.000002	0.000000	0.000000
48.363070	12.871883	22.119460	1.333325	-2.189628	2.329977	0.000000	-0.237866	0.000000	0.000007	-0.000002	0.000000	0.000000
48.804030	11.876201	23.835003	0.933227	-1.686040	2.239548	0.000000	-0.172676	0.000000	0.000006	-0.000002	0.000000	0.000000
49.244990	11.213311	25.070768	0.575765	-1.105738	2.177404	0.000000	-0.109452	0.000000	0.000005	-0.000002	0.000000	0.000000
49.685950	10.852925	25.770528	0.244609	-0.475126	2.142838	0.000000	-0.047475	0.000000	0.000004	-0.000002	0.000000	0.000000
50.128160	10.778703	25.902162	-0.049057	0.113537	2.135468	0.000000	0.008724	0.000000	0.000003	-0.000002	0.000000	0.000000
50.425482	10.816096	25.838105	-0.076708	0.101910	2.138062	0.000000	0.008724	0.000000	0.000003	-0.000002	0.000000	0.000000
50.758816	10.877568	25.774510	-0.107707	0.088875	2.140971	0.000000	0.008724	0.000000	0.000002	-0.000002	0.000000	0.000000
51.092149	10.959706	25.719604	-0.138707	0.075841	2.143879	0.000000	0.008724	0.000000	0.000001	-0.000002	0.000000	0.000000
51.426732	11.062710	25.673753	-0.080075	-0.145521	2.146777	0.000000	-0.008692	0.000000	0.000001	-0.000002	0.000000	0.000000
51.724055	11.118369	25.763802	-0.079858	-0.220528	2.144193	0.000000	-0.013950	0.000000	0.000000	-0.000002	0.000000	0.000000
52.165015	11.333990	25.671639	-0.410980	0.428740	2.151631	0.000000	0.047712	0.000000	-0.000001	-0.000002	0.000000	0.000000
52.605975	11.848781	25.013320	-0.760879	1.058500	2.186353	0.000000	0.109917	0.000000	-0.000001	-0.000002	0.000000	0.000000
53.046935	12.686258	23.818800	-1.145541	1.640100	2.248754	0.000000	0.173375	0.000000	-0.000002	-0.000002	0.000000	0.000000
53.487895	13.884686	22.142428	-1.582539	2.147076	2.339546	0.000000	0.238807	0.000000	-0.000003	-0.000002	0.000000	0.000000
53.933855	15.519362	20.035416	-2.096063	2.557700	2.461268	0.000000	0.307357	0.000000	-0.000004	-0.000002	0.000000	0.000000
54.482915	17.624005	17.664433	-1.714423	1.786046	2.609846	0.000000	0.233053	0.000000	-0.000005	-0.000002	0.000000	0.000000
55.031975	19.240180	16.066408	-1.211684	1.141608	2.716430	0.000000	0.154614	0.000000	-0.000006	-0.000002	0.000000	0.000000
55.581035	20.253728	15.127516	-0.623358	0.578485	2.779129	0.000000	0.073433	0.000000	-0.000007	-0.000002	0.000000	0.000000
56.130095	20.593056	14.780882	0.008998	0.056565	2.796831	0.000000	-0.009050	0.000000	-0.000008	-0.000001	0.000000	0.000000
56.428668	20.624153	14.730127	-0.059339	0.074805	2.796311	0.000000	-0.001742	0.000000	-0.000008	-0.000001	0.000000	0.000000
56.762001	20.669118	14.687842	-0.075558	0.052049	2.795731	0.000000	-0.001742	0.000000	-0.000009	-0.000001	0.000000	0.000000
57.095334	20.724896	14.660728	-0.091777	0.029293	2.795151	0.000000	-0.001742	0.000000	-0.000009	-0.000001	0.000000	0.000000
57.429918	20.791758	14.648769	-0.108057	0.006451	2.794568	0.000000	-0.001742	0.000000	-0.000009	-0.000001	0.000000	0.000000
57.727240	20.860314	14.650968	-0.177033	0.024437	2.794051	0.000000	0.005559	0.000000	-0.000010	-0.000001	0.000000	0.000000
58.276300	20.698871	14.905415	0.469328	-0.490595	2.774464	0.000000	-0.076804	0.000000	-0.000010	-0.000001	0.000000	0.000000
58.825360	19.841730	15.741184	1.082537	-1.040572	2.709962	0.000000	-0.157805	0.000000	-0.000011	-0.000001	0.000000	0.000000
59.374420	18.349436	17.217805	1.619282	-1.664665	2.601690	0.000000	-0.236006	0.000000	-0.000011	-0.000000	0.000000	0.000000
59.923480	16.327396	19.440454	2.041648	-2.407329	2.451568	0.000000	-0.310021	0.000000	-0.000011	0.000000	0.000000	0.000000
60.369440	14.744807	21.415923	1.519644	-2.003672	2.328601	0.000000	-0.241739	0.000000	-0.000011	-0.000000	0.000000	0.000000
60.810400	13.606637	22.971330	1.071267	-1.510225	2.236452	0.000000	-0.176606	0.000000	-0.000011	-0.000001	0.000000	0.000000
61.251360	12.840905	24.059478	0.671833	-0.948065	2.172554	0.000000	-0.113485	0.000000	-0.000012	-0.000001	0.000000	0.000000
61.692320	12.412627	24.630858	0.303093	-0.342768	2.136179	0.000000	-0.051657	0.000000	-0.000012	-0.000001	0.000000	0.000000
62.134530	12.302289	24.658928	-0.021729	0.217592	2.126917	0.000000	0.004367	0.000000	-0.000013	-0.000001	0.000000	0.000000
62.431853	12.322399	24.533293	-0.045908	0.204963	2.128216	0.000000	0.004367	0.000000	-0.000013	-0.000001	0.000000	0.000000
62.765186	12.362040	24.401370	-0.073016	0.190806	2.129672	0.000000	0.004367	0.000000	-0.000014	-0.000001	0.000000	0.000000
63.098520	12.419754	24.278885	-0.100124	0.176648	2.131128	0.000000	0.004367	0.000000	-0.000014	-0.000001	0.000000	0.000000
63.433103	12.495858	24.165433	-0.127334	0.162437	2.132589	0.000000	0.004367	0.000000	-0.000014	-0.000001	0.000000	0.000000
63.730426	12.578765	24.072596	-0.120662	0.090767	2.133888	0.000000	-0.000867	0.000000	-0.000015	-0.000001	0.000000	0.000000
64.171386	12.845403	23.727447	-0.486307	0.688976	2.147047	0.000000	0.060603	0.000000	-0.000016	-0.000002	0.000000	0.000000
64.612346	13.443051	22.866586	-0.874171	1.255837	2.187438	0.000000	0.122763	0.000000	-0.000016	-0.000002	0.000000	0.000000
65.053306	14.399016	21.529182	-1.301972	1.765559	2.255521	0.000000	0.186322	0.000000	-0.000017	-0.000003	0.000000	0.000000
65.494266	15.756972	19.776086	-1.789257	2.194949	2.352072	0.000000	0.252003	0.000000	-0.000019	-0.000003	0.000000	0.000000
65.940226	17.602121	17.662260	-2.362978	2.525222	2.479763	0.000000	0.320955	0.000000	-0.000020	-0.000004	0.000000	0.000000
66.489286	19.967568	15.297610	-1.919698	1.806925	2.635622	0.000000	0.245933	0.000000	-0.000022	-0.000003	0.000000	0.000000
67.038346	21.768447	13.646856	-1.340820	1.217331	2.749029	0.000000	0.166549	0.000000	-0.000023	-0.000002	0.000000	0.000000
67.587406	22.877553	12.592419	-0.667233	0.714445	2.817973	0.000000	0.084211	0.000000	-0.000024	-0.000001	0.000000	0.000000
68.136466	23.216545	12.059194	0.053483	0.262448	2.841230	0.000000	0.000379	0.000000	-0.000025	-0.000001	0.000000	0.000000
68.435038	23.224678	11.891687	-0.020051	0.267064	2.843561	0.000000	0.007804	0.000000	-0.000025	-0.000001	0.000000	0.000000
68.768372	23.242831	11.723654	-0.034409	0.237034	2.846162	0.000000	0.007804	0.000000	-0.000025	-0.000001	0.000000	0.000000
69.101705	23.270557	11.575641	-0.048767	0.207004	2.848764	0.000000	0.007804	0.000000	-0.000026	-0.000001	0.000000	0.000000
69.436288	23.308013	11.447206	-0.063180	0.176862	2.851375	0.000000	0.007804	0.000000	-0.000026	-0.000001	0.000000	0.000000
69.733611	23.349390	11.350000	-0.137008	0.179738	2.853696	0.000000	0.015262	0.000000	-0.000026	-0.000001	0.000000	0.000000
70.282671	23.098819	11.379980	0.590670	-0.234663	2.838891	0.000000	-0.069111	0.000000	-0.000026	0.000000	0.000000	0.000000
