#ParticleID	Turn	x[m]	xp	y[m]	yp	z[m]	dE[GeV]# s	beta_x	beta_y	alpha_x	alpha_y	D_x	D_y	D_px	D_py	orbit_x	orbit_px	orbit_y	orbit_py
0.300000	11.821194	24.988536	-0.011894	-0.027556	2.618076	0.000000	0.000026	0.000000	0.000000	0.000001	0.000000	0.000000
0.601250	11.836039	25.008773	-0.037382	-0.039621	2.618084	0.000000	0.000026	0.000000	0.000000	0.000001	0.000000	0.000000
0.898573	11.865747	25.035874	-0.033439	-0.112923	2.618091	0.000000	-0.006394	0.000000	0.000001	0.000001	0.000000	0.000000
1.339533	12.047457	24.857764	-0.380203	0.515300	2.631565	0.000000	0.067563	0.000000	0.000001	0.000001	0.000000	0.000000
1.780493	12.541460	24.133873	-0.744338	1.120078	2.677788	0.000000	0.142289	0.000000	0.000001	0.000001	0.000000	0.000000
2.221453	13.370327	22.897138	-1.142479	1.673892	2.757289	0.000000	0.218636	0.000000	0.000001	0.000001	0.000000	0.000000
2.662413	14.571924	21.203829	-1.592817	2.151546	2.870972	0.000000	0.297473	0.000000	0.000002	0.000001	0.000000	0.000000
3.108373	16.221921	19.106155	-2.120220	2.532438	3.021994	0.000000	0.380187	0.000000	0.000002	0.000001	0.000000	0.000000
3.657433	18.337744	16.750206	-1.710504	1.783768	3.205468	0.000000	0.287149	0.000000	0.000003	0.000001	0.000000	0.000000
4.206493	19.934237	15.142211	-1.179968	1.162151	3.336382	0.000000	0.189018	0.000000	0.000003	0.000001	0.000000	0.000000
4.755553	20.898633	14.167638	-0.566084	0.623312	3.412415	0.000000	0.087534	0.000000	0.000003	0.000001	0.000000	0.000000
5.304613	21.162811	13.757069	0.087786	0.128869	3.432219	0.000000	-0.015503	0.000000	0.000004	0.000000	0.000000	0.000000
5.603185	21.147625	13.665307	0.018370	0.142520	3.430267	0.000000	-0.006536	0.000000	0.000004	0.000000	0.000000	0.000000
5.936519	21.140635	13.578590	0.002602	0.117632	3.428089	0.000000	-0.006536	0.000000	0.000004	0.000000	0.000000	0.000000
6.269852	21.144156	13.508465	-0.013165	0.092744	3.425910	0.000000	-0.006536	0.000000	0.000004	0.000000	0.000000	0.000000
6.604435	21.158261	13.454762	-0.028992	0.067762	3.423723	0.000000	-0.006536	0.000000	0.000004	0.000000	0.000000	0.000000
6.901758	21.179682	13.421068	-0.098393	0.080628	3.421780	0.000000	0.002405	0.000000	0.000004	0.000000	0.000000	0.000000
7.450818	20.926733	13.593210	0.556361	-0.396001	3.394898	0.000000	-0.100179	0.000000	0.000005	0.000000	0.000000	0.000000
7.999878	19.972211	14.301074	1.171815	-0.900836	3.312097	0.000000	-0.200986	0.000000	0.000005	0.000000	0.000000	0.000000
8.548938	18.383537	15.595077	1.704499	-1.469837	3.174846	0.000000	-0.298228	0.000000	0.000005	0.000000	0.000000	0.000000
9.097998	16.272929	17.567390	2.116785	-2.143530	2.985578	0.000000	-0.390180	0.000000	0.000005	-0.000000	0.000000	0.000000
9.543958	14.626220	19.324848	1.588847	-1.780655	2.829881	0.000000	-0.308471	0.000000	0.000005	-0.000000	0.000000	0.000000
9.984918	13.428426	20.705301	1.137790	-1.337994	2.711104	0.000000	-0.230759	0.000000	0.000005	0.000000	0.000000	0.000000
10.425878	12.604088	21.666923	0.738717	-0.834455	2.625984	0.000000	-0.155675	0.000000	0.000005	0.000000	0.000000	0.000000
10.866838	12.115546	22.165962	0.373393	-0.292949	2.573551	0.000000	-0.082364	0.000000	0.000005	0.000000	0.000000	0.000000
11.309048	11.940343	22.179193	0.054303	0.207439	2.553187	0.000000	-0.016253	0.000000	0.000005	0.000000	0.000000	0.000000
11.606371	11.915477	22.059998	0.029329	0.193456	2.548355	0.000000	-0.016253	0.000000	0.000005	0.000000	0.000000	0.000000
12.086371	11.906674	21.885115	-0.010990	0.170883	2.540553	0.000000	-0.016253	0.000000	0.000006	0.000000	0.000000	0.000000
12.566371	11.936577	21.731902	-0.051308	0.148310	2.532752	0.000000	-0.016253	0.000000	0.000006	0.000000	0.000000	0.000000
13.046371	12.005185	21.600359	-0.091626	0.125737	2.524950	0.000000	-0.016253	0.000000	0.000006	0.000000	0.000000	0.000000
13.526371	12.112499	21.490487	-0.131945	0.103164	2.517149	0.000000	-0.016253	0.000000	0.000006	0.000000	0.000000	0.000000
14.007621	12.258950	21.402083	-0.172368	0.080532	2.509327	0.000000	-0.016253	0.000000	0.000006	0.000000	0.000000	0.000000
14.304943	12.368873	21.358353	-0.167012	0.014176	2.504494	0.000000	-0.022394	0.000000	0.000007	0.000000	0.000000	0.000000
14.745903	12.674779	21.112070	-0.529346	0.542214	2.510252	0.000000	0.048535	0.000000	0.000007	0.000001	0.000000	0.000000
15.186863	13.309650	20.409240	-0.915864	1.045582	2.547379	0.000000	0.120016	0.000000	0.000007	0.000001	0.000000	0.000000
15.627823	14.302494	19.281843	-1.344226	1.501377	2.616297	0.000000	0.192865	0.000000	0.000008	0.000001	0.000000	0.000000
16.068783	15.698668	17.781173	-1.834001	1.888860	2.717791	0.000000	0.267910	0.000000	0.000008	0.000001	0.000000	0.000000
16.514743	17.585617	15.954007	-2.412325	2.191149	2.854713	0.000000	0.346469	0.000000	0.000009	0.000001	0.000000	0.000000
17.063803	20.009027	13.913743	-1.975290	1.546705	3.021212	0.000000	0.259126	0.000000	0.000009	0.000001	0.000000	0.000000
17.612863	21.872598	12.516870	-1.398730	1.012429	3.138419	0.000000	0.167186	0.000000	0.000010	0.000001	0.000000	0.000000
18.161923	23.044697	11.663891	-0.723371	0.550267	3.204257	0.000000	0.072282	0.000000	0.000010	0.000000	0.000000	0.000000
18.710983	23.442533	11.294051	0.003084	0.127298	3.217557	0.000000	-0.023905	0.000000	0.000010	0.000000	0.000000	0.000000
19.009556	23.481079	11.208503	-0.070941	0.129719	3.212930	0.000000	-0.015499	0.000000	0.000011	0.000000	0.000000	0.000000
19.342889	23.533129	11.132103	-0.085208	0.099479	3.207763	0.000000	-0.015499	0.000000	0.000011	0.000000	0.000000	0.000000
19.676223	23.594691	11.075864	-0.099476	0.069239	3.202597	0.000000	-0.015499	0.000000	0.000011	0.000000	0.000000	0.000000
20.010806	23.666341	11.039550	-0.231053	0.093583	3.197431	0.000000	0.000343	0.000000	0.000011	0.000000	0.000000	0.000000
20.308129	23.807670	10.991980	-0.306486	0.095132	3.197533	0.000000	0.008697	0.000000	0.000011	0.000000	0.000000	0.000000
20.857189	23.733610	11.109848	0.440572	-0.311072	3.176084	0.000000	-0.086709	0.000000	0.000011	-0.000000	0.000000	0.000000
21.406249	22.851494	11.683255	1.156511	-0.739434	3.102598	0.000000	-0.180577	0.000000	0.000011	-0.000000	0.000000	0.000000
21.955309	21.223629	12.753041	1.790759	-1.220463	2.978378	0.000000	-0.271242	0.000000	0.000010	-0.000001	0.000000	0.000000
22.504369	18.965000	14.395407	2.298517	-1.788424	2.805626	0.000000	-0.357096	0.000000	0.000010	-0.000001	0.000000	0.000000
22.950329	17.185056	15.869876	1.706836	-1.503909	2.663672	0.000000	-0.279876	0.000000	0.000009	-0.000001	0.000000	0.000000
23.391289	15.909053	17.045421	1.197833	-1.151823	2.556582	0.000000	-0.206298	0.000000	0.000009	-0.000001	0.000000	0.000000
23.832249	15.056215	17.886071	0.743554	-0.747331	2.481389	0.000000	-0.135070	0.000000	0.000009	-0.000000	0.000000	0.000000
24.273209	14.587576	18.353577	0.323247	-0.308835	2.437236	0.000000	-0.065380	0.000000	0.000009	-0.000000	0.000000	0.000000
24.715418	14.481842	18.426422	-0.046868	0.098460	2.423617	0.000000	-0.002378	0.000000	0.000009	0.000000	0.000000	0.000000
25.012741	14.515830	18.372717	-0.067443	0.082168	2.422910	0.000000	-0.002378	0.000000	0.000009	0.000000	0.000000	0.000000
25.346075	14.568481	18.324026	-0.090511	0.063903	2.422117	0.000000	-0.002378	0.000000	0.000009	0.000000	0.000000	0.000000
25.679408	14.636511	18.287513	-0.113579	0.045637	2.421324	0.000000	-0.002378	0.000000	0.000009	0.000000	0.000000	0.000000
26.013991	14.719963	18.263479	-0.017316	-0.120859	2.420504	0.000000	-0.022015	0.000000	0.000009	-0.000000	0.000000	0.000000
26.311314	14.736267	18.340258	-0.001386	-0.182348	2.413959	0.000000	-0.027934	0.000000	0.000009	-0.000000	0.000000	0.000000
26.752274	14.919058	18.302149	-0.414716	0.268443	2.416754	0.000000	0.040623	0.000000	0.000009	0.000000	0.000000	0.000000
27.193234	15.473320	17.870365	-0.846995	0.707020	2.449852	0.000000	0.109642	0.000000	0.000009	0.000000	0.000000	0.000000
27.634194	16.424374	17.064554	-1.317970	1.113428	2.513632	0.000000	0.179910	0.000000	0.000009	0.000001	0.000000	0.000000
28.075154	17.815673	15.921378	-1.849159	1.469176	2.608819	0.000000	0.252227	0.000000	0.000010	0.000001	0.000000	0.000000
28.521114	19.734955	14.475633	-2.469793	1.758991	2.738100	0.000000	0.327861	0.000000	0.000010	0.000001	0.000000	0.000000
29.070174	22.174376	12.864722	-1.946810	1.192270	2.895446	0.000000	0.244444	0.000000	0.000011	0.000001	0.000000	0.000000
29.619234	23.960127	11.826132	-1.286314	0.710472	3.005732	0.000000	0.156692	0.000000	0.000011	0.000000	0.000000	0.000000
30.168294	24.966070	11.285888	-0.534959	0.279280	3.067002	0.000000	0.066160	0.000000	0.000011	0.000000	0.000000	0.000000
30.717354	25.121151	11.205508	0.254183	-0.132020	3.078169	0.000000	-0.025545	0.000000	0.000011	-0.000000	0.000000	0.000000
31.015927	25.012232	11.274902	0.176244	-0.129672	3.072943	0.000000	-0.017503	0.000000	0.000011	-0.000000	0.000000	0.000000
31.349260	24.899316	11.371370	0.162503	-0.159733	3.067109	0.000000	-0.017503	0.000000	0.000011	-0.000000	0.000000	0.000000
31.682593	24.795561	11.487879	0.148763	-0.189794	3.061275	0.000000	-0.017503	0.000000	0.000011	-0.000000	0.000000	0.000000
32.017177	24.700629	11.624979	0.134970	-0.219968	3.055419	0.000000	-0.017503	0.000000	0.000011	-0.000000	0.000000	0.000000
32.314499	24.624013	11.763754	0.058382	-0.216048	3.050215	0.000000	-0.009534	0.000000	0.000011	-0.000000	0.000000	0.000000
32.863559	24.138042	12.240267	0.821475	-0.656944	3.020093	0.000000	-0.100026	0.000000	0.000011	-0.000001	0.000000	0.000000
33.412619	22.841163	13.223635	1.526543	-1.144632	2.940701	0.000000	-0.188744	0.000000	0.000010	-0.000001	0.000000	0.000000
33.961679	20.824979	14.783903	2.123783	-1.713850	2.813445	0.000000	-0.274114	0.000000	0.000010	-0.000001	0.000000	0.000000
34.510739	18.231905	17.032206	2.571010	-2.405141	2.640584	0.000000	-0.354622	0.000000	0.000009	-0.000001	0.000000	0.000000
34.956699	16.215736	19.043200	1.966151	-2.085391	2.498782	0.000000	-0.281681	0.000000	0.000008	-0.000001	0.000000	0.000000
35.397659	14.712351	20.706170	1.456128	-1.671505	2.389956	0.000000	-0.212377	0.000000	0.000008	-0.000001	0.000000	0.000000
35.838619	13.627840	21.969066	1.012632	-1.181566	2.311129	0.000000	-0.145491	0.000000	0.000007	-0.000001	0.000000	0.000000
36.279579	12.912656	22.774428	0.615400	-0.637867	2.261402	0.000000	-0.080262	0.000000	0.000007	-0.000001	0.000000	0.000000
36.721789	12.533432	23.085917	0.276912	-0.121810	2.240183	0.000000	-0.021441	0.000000	0.000007	-0.000001	0.000000	0.000000
37.019112	12.376361	23.162237	0.251371	-0.134880	2.233809	0.000000	-0.021441	0.000000	0.000007	-0.000001	0.000000	0.000000
37.352445	12.218326	23.257041	0.222736	-0.149533	2.226662	0.000000	-0.021441	0.000000	0.000006	-0.000001	0.000000	0.000000
37.685779	12.079380	23.361614	0.194101	-0.164186	2.219515	0.000000	-0.021441	0.000000	0.000006	-0.000001	0.000000	0.000000
38.020362	11.959111	23.476402	0.165359	-0.178894	2.212342	0.000000	-0.021441	0.000000	0.000006	-0.000001	0.000000	0.000000
38.317684	11.868375	23.586667	0.168920	-0.249802	2.205967	0.000000	-0.026850	0.000000	0.000006	-0.000001	0.000000	0.000000
38.758644	11.870742	23.545730	-0.174308	0.342285	2.208056	0.000000	0.036335	0.000000	0.000006	-0.000000	0.000000	0.000000
39.199604	12.178163	22.987517	-0.525499	0.918799	2.238073	0.000000	0.099935	0.000000	0.000006	-0.000000	0.000000	0.000000
39.640564	12.804683	21.937429	-0.900700	1.453508	2.296358	0.000000	0.164672	0.000000	0.000005	-0.000000	0.000000	0.000000
40.081524	13.778926	20.443241	-1.317051	1.922084	2.383576	0.000000	0.231285	0.000000	0.000005	0.000000	0.000000	0.000000
40.527484	15.162974	18.550371	-1.797399	2.304488	2.502191	0.000000	0.300938	0.000000	0.000005	0.000000	0.000000	0.000000
41.076544	16.929281	16.423306	-1.400523	1.592393	2.646892	0.000000	0.225370	0.000000	0.000006	0.000000	0.000000	0.000000
41.625604	18.202536	15.011707	-0.904721	0.993720	2.748941	0.000000	0.145805	0.000000	0.000005	-0.000000	0.000000	0.000000
42.174664	18.892801	14.215030	-0.345014	0.465828	2.806528	0.000000	0.063653	0.000000	0.000005	-0.000000	0.000000	0.000000
42.723724	18.951321	13.976528	0.239063	-0.028884	2.818633	0.000000	-0.019627	0.000000	0.000005	-0.000001	0.000000	0.000000
43.022297	18.843005	13.978349	0.173228	-0.013731	2.814972	0.000000	-0.012263	0.000000	0.000005	-0.000001	0.000000	0.000000
43.502297	18.689300	14.008016	0.146990	-0.048076	2.809086	0.000000	-0.012263	0.000000	0.000005	-0.000001	0.000000	0.000000
43.982297	18.560784	14.070655	0.120752	-0.082421	2.803200	0.000000	-0.012263	0.000000	0.000004	-0.000001	0.000000	0.000000
44.462297	18.457456	14.166265	0.094514	-0.116767	2.797314	0.000000	-0.012263	0.000000	0.000004	-0.000001	0.000000	0.000000
44.942297	18.379317	14.294846	0.068276	-0.151112	2.791428	0.000000	-0.012263	0.000000	0.000004	-0.000001	0.000000	0.000000
45.423547	18.326488	14.456684	-0.048830	-0.113919	2.785544	0.000000	0.001538	0.000000	0.000004	-0.000000	0.000000	0.000000
45.720870	18.360359	14.530620	-0.113063	-0.096788	2.786001	0.000000	0.008817	0.000000	0.000004	-0.000000	0.000000	0.000000
46.269930	18.175360	14.917973	0.448007	-0.612861	2.768269	0.000000	-0.073315	0.000000	0.000003	-0.000001	0.000000	0.000000
46.818990	17.388047	15.892539	0.977432	-1.172587	2.705733	0.000000	-0.154146	0.000000	0.000003	-0.000001	0.000000	0.000000
47.368050	16.054033	17.523732	1.437817	-1.815833	2.599501	0.000000	-0.232244	0.000000	0.000003	-0.000001	0.000000	0.000000
47.917110	14.267546	19.927740	1.796641	-2.588418	2.451458	0.000000	-0.306222	0.000000	0.000002	-0.000001	0.000000	0.000000
48.363070	12.877259	22.065157	1.331920	-2.184276	2.330189	0.000000	-0.237920	0.000000	0.000002	-0.000001	0.000000	0.000000
48.804030	11.882813	23.776552	0.931819	-1.682023	2.239736	0.000000	-0.172725	0.000000	0.000001	-0.000001	0.000000	0.000000
49.244990	11.221189	25.009433	0.574291	-1.103239	2.177571	0.000000	-0.109497	0.000000	0.000001	-0.000001	0.000000	0.000000
49.685950	10.862158	25.707703	0.243000	-0.474259	2.142986	0.000000	-0.047516	0.000000	0.000001	-0.000001	0.000000	0.000000
50.128160	10.789446	25.839311	-0.050847	0.112885	2.135598	0.000000	0.008686	0.000000	0.000000	-0.000001	0.000000	0.000000
50.425482	10.827896	25.775649	-0.078475	0.101232	2.138181	0.000000	0.008686	0.000000	0.000000	-0.000001	0.000000	0.000000
50.758816	10.890538	25.712516	-0.109449	0.088167	2.141077	0.000000	0.008686	0.000000	-0.000000	-0.000001	0.000000	0.000000
51.092149	10.973828	25.658092	-0.140423	0.075103	2.143972	0.000000	0.008686	0.000000	-0.000000	-0.000001	0.000000	0.000000
51.426732	11.077973	25.612743	-0.081642	-0.145794	2.146857	0.000000	-0.008730	0.000000	-0.000001	-0.000001	0.000000	0.000000
51.724055	11.134554	25.702963	-0.081355	-0.220681	2.144262	0.000000	-0.013989	0.000000	-0.000001	-0.000001	0.000000	0.000000
52.165015	11.351669	25.611645	-0.412883	0.426984	2.151682	0.000000	0.047675	0.000000	-0.000001	-0.000001	0.000000	0.000000
52.605975	11.868348	24.955555	-0.763276	1.055221	2.186388	0.000000	0.109882	0.000000	-0.000001	-0.000001	0.000000	0.000000
53.046935	12.708196	23.764547	-1.148540	1.635446	2.248773	0.000000	0.173340	0.000000	-0.000002	-0.000001	0.000000	0.000000
53.487895	13.909583	22.092809	-1.586277	2.141260	2.339549	0.000000	0.238772	0.000000	-0.000002	-0.000001	0.000000	0.000000
53.933855	15.547990	19.991408	-2.100720	2.550984	2.461255	0.000000	0.307322	0.000000	-0.000002	-0.000001	0.000000	0.000000
54.482915	17.657366	17.626836	-1.718334	1.781020	2.609814	0.000000	0.233019	0.000000	-0.000003	-0.000001	0.000000	0.000000
55.031975	19.277298	16.033571	-1.214574	1.137913	2.716379	0.000000	0.154581	0.000000	-0.000003	-0.000001	0.000000	0.000000
55.581035	20.293362	15.098129	-0.625023	0.575858	2.779060	0.000000	0.073402	0.000000	-0.000004	-0.000001	0.000000	0.000000
56.130095	20.633788	14.753882	0.008677	0.054820	2.796745	0.000000	-0.009078	0.000000	-0.000004	-0.000000	0.000000	0.000000
56.428668	20.665130	14.704221	-0.059737	0.072957	2.796217	0.000000	-0.001771	0.000000	-0.000004	-0.000000	0.000000	0.000000
56.762001	20.710351	14.663180	-0.075925	0.050167	2.795626	0.000000	-0.001771	0.000000	-0.000004	-0.000000	0.000000	0.000000
57.095334	20.766363	14.637332	-0.092112	0.027377	2.795036	0.000000	-0.001771	0.000000	-0.000004	-0.000000	0.000000	0.000000
57.429918	20.833438	14.626665	-0.108361	0.004502	2.794444	0.000000	-0.001771	0.000000	-0.000005	-0.000000	0.000000	0.000000
57.727240	20.902167	14.630032	-0.177416	0.022401	2.793918	0.000000	0.005529	0.000000	-0.000005	-0.000000	0.000000	0.000000
58.276300	20.740373	14.886396	0.470347	-0.492072	2.774315	0.000000	-0.076829	0.000000	-0.000005	-0.000000	0.000000	0.000000
58.825360	19.881372	15.723529	1.084886	-1.041593	2.709801	0.000000	-0.157824	0.000000	-0.000005	-0.000000	0.000000	0.000000
59.374420	18.385840	17.201057	1.622795	-1.665305	2.601519	0.000000	-0.236021	0.000000	-0.000005	-0.000000	0.000000	0.000000
59.923480	16.359413	19.424221	2.046077	-2.407633	2.451391	0.000000	-0.310030	0.000000	-0.000005	0.000000	0.000000	0.000000
60.369440	14.773312	21.400219	1.523118	-2.004550	2.328419	0.000000	-0.241752	0.000000	-0.000005	0.000000	0.000000	0.000000
60.810400	13.632435	22.956639	1.073954	-1.511635	2.236263	0.000000	-0.176625	0.000000	-0.000005	-0.000000	0.000000	0.000000
61.251360	12.864634	24.046241	0.673856	-0.949941	2.172355	0.000000	-0.113509	0.000000	-0.000005	-0.000000	0.000000	0.000000
61.692320	12.434830	24.619451	0.304544	-0.345025	2.135968	0.000000	-0.051686	0.000000	-0.000005	-0.000000	0.000000	0.000000
62.134530	12.323437	24.649649	-0.020734	0.215083	2.126692	0.000000	0.004333	0.000000	-0.000005	-0.000000	0.000000	0.000000
62.431853	12.342943	24.525503	-0.044871	0.202463	2.127981	0.000000	0.004333	0.000000	-0.000006	-0.000000	0.000000	0.000000
62.765186	12.381877	24.395244	-0.071931	0.188314	2.129425	0.000000	0.004333	0.000000	-0.000006	-0.000000	0.000000	0.000000
63.098520	12.438852	24.274417	-0.098992	0.174166	2.130870	0.000000	0.004333	0.000000	-0.000006	-0.000000	0.000000	0.000000
63.433103	12.514182	24.162623	-0.126154	0.159964	2.132320	0.000000	0.004333	0.000000	-0.000006	-0.000000	0.000000	0.000000
63.730426	12.596375	24.071253	-0.119399	0.088311	2.133609	0.000000	-0.000899	0.000000	-0.000006	-0.000000	0.000000	0.000000
64.171386	12.862064	23.728266	-0.485412	0.686549	2.146751	0.000000	0.060564	0.000000	-0.000006	-0.000001	0.000000	0.000000
64.612346	13.459070	22.869492	-0.873603	1.253549	2.187123	0.000000	0.122716	0.000000	-0.000007	-0.000001	0.000000	0.000000
65.053306	14.414668	21.534007	-1.301706	1.763514	2.255183	0.000000	0.186266	0.000000	-0.000007	-0.000001	0.000000	0.000000
65.494266	15.772518	19.782572	-1.789280	2.193240	2.351706	0.000000	0.251938	0.000000	-0.000008	-0.000001	0.000000	0.000000
65.940226	17.617818	17.670090	-2.363293	2.523931	2.479365	0.000000	0.320881	0.000000	-0.000008	-0.000001	0.000000	0.000000
66.489286	19.983256	15.306846	-1.919365	1.805640	2.635186	0.000000	0.245872	0.000000	-0.000009	-0.000001	0.000000	0.000000
67.038346	21.783423	13.657541	-1.339862	1.215961	2.748563	0.000000	0.166503	0.000000	-0.000009	-0.000001	0.000000	0.000000
67.587406	22.891163	12.604700	-0.665718	0.712892	2.817484	0.000000	0.084180	0.000000	-0.000010	-0.000001	0.000000	0.000000
68.136466	23.228233	12.073330	0.055449	0.260601	2.840729	0.000000	0.000364	0.000000	-0.000010	-0.000000	0.000000	0.000000
68.435038	23.235204	11.906888	-0.018102	0.265309	2.843054	0.000000	0.007787	0.000000	-0.000010	-0.000000	0.000000	0.000000
68.768372	23.252056	11.740005	-0.032452	0.235343	2.845649	0.000000	0.007787	0.000000	-0.000010	-0.000000	0.000000	0.000000
69.101705	23.278474	11.593098	-0.046803	0.205377	2.848245	0.000000	0.007787	0.000000	-0.000010	-0.000000	0.000000	0.000000
69.436288	23.314613	11.465730	-0.061208	0.175300	2.850850	0.000000	0.007787	0.000000	-0.000010	-0.000000	0.000000	0.000000
69.733611	23.354815	11.369436	-0.135035	0.178280	2.853166	0.000000	0.015242	0.000000	-0.000010	-0.000000	0.000000	0.000000
70.282671	23.101998	11.401320	0.592764	-0.236694	2.838355	0.000000	-0.069113	0.000000	-0.000010	0.000000	0.000000	0.000000
