#ParticleID	Turn	x[m]	xp	y[m]	yp	z[m]	dE[GeV]# s	beta_x	beta_y	alpha_x	alpha_y	D_x	D_y	D_px	D_py	orbit_x	orbit_px	orbit_y	orbit_py
0.300000	11.808385	25.040846	-0.010450	-0.027037	2.618125	0.000000	0.000008	0.000000	-0.000001	0.000002	0.000000	0.000000
0.601250	11.822367	25.060763	-0.035964	-0.039076	2.618127	0.000000	0.000008	0.000000	-0.000000	0.000002	0.000000	0.000000
0.898573	11.851240	25.087532	-0.032083	-0.112480	2.618129	0.000000	-0.006413	0.000000	0.000000	0.000002	0.000000	0.000000
1.339533	12.031599	24.908430	-0.378482	0.517099	2.631593	0.000000	0.067545	0.000000	0.000001	0.000002	0.000000	0.000000
1.780493	12.523895	24.182383	-0.742172	1.123150	2.677809	0.000000	0.142272	0.000000	0.000002	0.000002	0.000000	0.000000
2.221453	13.350621	22.942425	-1.139771	1.678099	2.757302	0.000000	0.218619	0.000000	0.000002	0.000002	0.000000	0.000000
2.662413	14.549546	21.244974	-1.589442	2.156696	2.870977	0.000000	0.297456	0.000000	0.000003	0.000002	0.000000	0.000000
3.108373	16.196176	19.142371	-2.116017	2.538298	3.021991	0.000000	0.380171	0.000000	0.000004	0.000002	0.000000	0.000000
3.657433	18.307724	16.780804	-1.706969	1.788200	3.205456	0.000000	0.287133	0.000000	0.000005	0.000002	0.000000	0.000000
4.206493	19.900819	15.168578	-1.177349	1.165471	3.336361	0.000000	0.189002	0.000000	0.000006	0.000001	0.000000	0.000000
4.755553	20.862931	14.190857	-0.564567	0.625757	3.412385	0.000000	0.087519	0.000000	0.000006	0.000001	0.000000	0.000000
5.304613	21.126101	13.778001	0.088094	0.130614	3.432180	0.000000	-0.015517	0.000000	0.000007	0.000001	0.000000	0.000000
5.603185	21.110680	13.685160	0.018750	0.144339	3.430224	0.000000	-0.006550	0.000000	0.000007	0.000001	0.000000	0.000000
5.936519	21.103445	13.597223	0.002955	0.119474	3.428041	0.000000	-0.006550	0.000000	0.000008	0.000001	0.000000	0.000000
6.269852	21.106740	13.525861	-0.012840	0.094609	3.425857	0.000000	-0.006550	0.000000	0.000008	0.000001	0.000000	0.000000
6.604435	21.120637	13.470902	-0.028695	0.069651	3.423665	0.000000	-0.006550	0.000000	0.000008	0.000001	0.000000	0.000000
6.901758	21.141890	13.436079	-0.098020	0.082577	3.421718	0.000000	0.002390	0.000000	0.000009	0.000001	0.000000	0.000000
7.450818	20.889228	13.606306	0.555468	-0.394440	3.394828	0.000000	-0.100192	0.000000	0.000009	0.000001	0.000000	0.000000
7.999878	19.936356	14.312615	1.169720	-0.899551	3.312021	0.000000	-0.200996	0.000000	0.000010	0.000001	0.000000	0.000000
8.548938	18.350579	15.605316	1.701349	-1.468735	3.174764	0.000000	-0.298236	0.000000	0.000010	0.000000	0.000000	0.000000
9.097998	16.243910	17.576485	2.112803	-2.142535	2.985493	0.000000	-0.390185	0.000000	0.000010	-0.000000	0.000000	0.000000
9.543958	14.600357	19.332876	1.585727	-1.779268	2.829793	0.000000	-0.308478	0.000000	0.000010	0.000000	0.000000	0.000000
9.984918	13.404991	20.711956	1.135383	-1.336280	2.711013	0.000000	-0.230768	0.000000	0.000010	0.000000	0.000000	0.000000
10.425878	12.582504	21.671952	0.736912	-0.832493	2.625888	0.000000	-0.155687	0.000000	0.000010	0.000001	0.000000	0.000000
10.866838	12.095319	22.169184	0.372109	-0.290829	2.573449	0.000000	-0.082379	0.000000	0.000011	0.000001	0.000000	0.000000
11.309048	11.921043	22.180505	0.053432	0.209621	2.553078	0.000000	-0.016269	0.000000	0.000011	0.000001	0.000000	0.000000
11.606371	11.896706	22.060016	0.028420	0.195627	2.548240	0.000000	-0.016269	0.000000	0.000011	0.000001	0.000000	0.000000
12.086371	11.888806	21.883058	-0.011960	0.173036	2.540430	0.000000	-0.016269	0.000000	0.000012	0.000001	0.000000	0.000000
12.566371	11.919670	21.727788	-0.052340	0.150444	2.532620	0.000000	-0.016269	0.000000	0.000013	0.000001	0.000000	0.000000
13.046371	11.989299	21.594205	-0.092720	0.127852	2.524811	0.000000	-0.016269	0.000000	0.000013	0.000001	0.000000	0.000000
13.526371	12.097693	21.482311	-0.133100	0.105261	2.517001	0.000000	-0.016269	0.000000	0.000014	0.000001	0.000000	0.000000
14.007621	12.245285	21.391898	-0.173585	0.082611	2.509171	0.000000	-0.016269	0.000000	0.000014	0.000001	0.000000	0.000000
14.304943	12.355943	21.346935	-0.168301	0.016275	2.504333	0.000000	-0.022410	0.000000	0.000015	0.000001	0.000000	0.000000
14.745903	12.662870	21.098949	-0.530383	0.543960	2.510083	0.000000	0.048515	0.000000	0.000015	0.000002	0.000000	0.000000
15.186863	13.298563	20.394766	-0.916696	1.046896	2.547199	0.000000	0.119992	0.000000	0.000016	0.000002	0.000000	0.000000
15.627823	14.292063	19.266423	-1.344890	1.502198	2.616105	0.000000	0.192836	0.000000	0.000017	0.000002	0.000000	0.000000
16.068783	15.688762	17.765261	-1.834529	1.889151	2.717585	0.000000	0.267876	0.000000	0.000018	0.000003	0.000000	0.000000
16.514743	17.576130	15.938080	-2.412740	2.190893	2.854490	0.000000	0.346429	0.000000	0.000019	0.000003	0.000000	0.000000
17.063803	20.000256	13.897906	-1.976169	1.546796	3.020967	0.000000	0.259094	0.000000	0.000021	0.000003	0.000000	0.000000
17.612863	21.865021	12.500740	-1.400011	1.012875	3.138159	0.000000	0.167162	0.000000	0.000022	0.000002	0.000000	0.000000
18.161923	23.038708	11.647064	-0.724963	0.551098	3.203985	0.000000	0.072266	0.000000	0.000023	0.000001	0.000000	0.000000
18.710983	23.438412	11.276072	0.001293	0.128575	3.217279	0.000000	-0.023912	0.000000	0.000024	0.000000	0.000000	0.000000
19.009556	23.478019	11.189808	-0.072719	0.130892	3.212649	0.000000	-0.015507	0.000000	0.000024	0.000001	0.000000	0.000000
19.342889	23.531256	11.112647	-0.086992	0.100592	3.207480	0.000000	-0.015507	0.000000	0.000024	0.000001	0.000000	0.000000
19.676223	23.594008	11.055685	-0.101265	0.070293	3.202310	0.000000	-0.015507	0.000000	0.000024	0.000001	0.000000	0.000000
20.010806	23.666858	11.018687	-0.232850	0.094473	3.197141	0.000000	0.000333	0.000000	0.000024	0.000001	0.000000	0.000000
20.308129	23.809259	10.970603	-0.308290	0.095907	3.197240	0.000000	0.008685	0.000000	0.000024	0.000001	0.000000	0.000000
20.857189	23.737142	11.087288	0.438859	-0.309679	3.175788	0.000000	-0.086711	0.000000	0.000025	-0.000000	0.000000	0.000000
21.406249	22.856800	11.658781	1.155010	-0.737323	3.102304	0.000000	-0.180570	0.000000	0.000024	-0.000001	0.000000	0.000000
21.955309	21.230417	12.725791	1.789576	-1.217485	2.978090	0.000000	-0.271225	0.000000	0.000024	-0.000002	0.000000	0.000000
22.504369	18.972872	14.364315	2.297736	-1.784366	2.805351	0.000000	-0.357070	0.000000	0.000022	-0.000002	0.000000	0.000000
22.950329	17.193656	15.835477	1.705977	-1.500581	2.663407	0.000000	-0.279857	0.000000	0.000022	-0.000002	0.000000	0.000000
23.391289	15.918459	17.008465	1.196857	-1.149374	2.556325	0.000000	-0.206286	0.000000	0.000021	-0.000001	0.000000	0.000000
23.832249	15.066549	17.847386	0.742417	-0.745871	2.481136	0.000000	-0.135064	0.000000	0.000020	-0.000001	0.000000	0.000000
24.273209	14.599003	18.314067	0.321896	-0.308432	2.436984	0.000000	-0.065381	0.000000	0.000020	-0.000000	0.000000	0.000000
24.715418	14.494581	18.387032	-0.048466	0.097889	2.423363	0.000000	-0.002384	0.000000	0.000020	0.000000	0.000000	0.000000
25.012741	14.529515	18.333677	-0.069027	0.081564	2.422654	0.000000	-0.002384	0.000000	0.000020	0.000000	0.000000	0.000000
25.346075	14.583217	18.285402	-0.092078	0.063262	2.421860	0.000000	-0.002384	0.000000	0.000020	0.000000	0.000000	0.000000
25.679408	14.652286	18.249328	-0.115130	0.044959	2.421065	0.000000	-0.002384	0.000000	0.000020	0.000000	0.000000	0.000000
26.013991	14.736770	18.225759	-0.018713	-0.121268	2.420243	0.000000	-0.022018	0.000000	0.000020	0.000000	0.000000	0.000000
26.311314	14.753898	18.302792	-0.002722	-0.182697	2.413696	0.000000	-0.027936	0.000000	0.000020	-0.000000	0.000000	0.000000
26.752274	14.938062	18.265438	-0.416506	0.267086	2.416488	0.000000	0.040613	0.000000	0.000021	0.000001	0.000000	0.000000
27.193234	15.494130	17.835274	-0.849319	0.704717	2.449581	0.000000	0.109626	0.000000	0.000021	0.000001	0.000000	0.000000
27.634194	16.447509	17.031874	-1.320935	1.110283	2.513352	0.000000	0.179887	0.000000	0.000021	0.000002	0.000000	0.000000
28.075154	17.841755	15.891792	-1.852901	1.465333	2.608526	0.000000	0.252197	0.000000	0.000022	0.000002	0.000000	0.000000
28.521114	19.764787	14.449724	-2.474491	1.754623	2.737792	0.000000	0.327822	0.000000	0.000023	0.000003	0.000000	0.000000
29.070174	22.208970	12.843037	-1.950731	1.188900	2.895119	0.000000	0.244416	0.000000	0.000025	0.000002	0.000000	0.000000
29.619234	23.998470	11.807713	-1.289181	0.707860	3.005392	0.000000	0.156675	0.000000	0.000026	0.000001	0.000000	0.000000
30.168294	25.006886	11.270009	-0.536569	0.277239	3.066655	0.000000	0.066154	0.000000	0.000026	0.000000	0.000000	0.000000
30.717354	25.162989	11.191624	0.253943	-0.133635	3.077821	0.000000	-0.025540	0.000000	0.000026	-0.000001	0.000000	0.000000
31.015927	25.054268	11.262018	0.175925	-0.131369	3.072597	0.000000	-0.017500	0.000000	0.000026	-0.000000	0.000000	0.000000
31.349260	24.941557	11.359634	0.162209	-0.161477	3.066764	0.000000	-0.017500	0.000000	0.000026	-0.000000	0.000000	0.000000
31.682593	24.837989	11.477321	0.148493	-0.191586	3.060931	0.000000	-0.017500	0.000000	0.000026	-0.000000	0.000000	0.000000
32.017177	24.743230	11.615636	0.134725	-0.221808	3.055076	0.000000	-0.017500	0.000000	0.000025	-0.000000	0.000000	0.000000
32.314499	24.666753	11.755518	0.058055	-0.217955	3.049873	0.000000	-0.009532	0.000000	0.000025	-0.000000	0.000000	0.000000
32.863559	24.180361	12.234043	0.822565	-0.658724	3.019755	0.000000	-0.100014	0.000000	0.000025	-0.000001	0.000000	0.000000
33.412619	22.881536	13.219356	1.528973	-1.146412	2.940373	0.000000	-0.188721	0.000000	0.000024	-0.000002	0.000000	0.000000
33.961679	20.862021	14.781637	2.127383	-1.715756	2.813134	0.000000	-0.274081	0.000000	0.000023	-0.000003	0.000000	0.000000
34.510739	18.264464	17.032164	2.575524	-2.407311	2.640295	0.000000	-0.354579	0.000000	0.000021	-0.000003	0.000000	0.000000
34.956699	16.244721	19.045201	1.969680	-2.087783	2.498510	0.000000	-0.281646	0.000000	0.000020	-0.000003	0.000000	0.000000
35.397659	14.738593	20.710337	1.458842	-1.674007	2.389699	0.000000	-0.212348	0.000000	0.000018	-0.000002	0.000000	0.000000
35.838619	13.652001	21.975447	1.014655	-1.184065	2.310884	0.000000	-0.145468	0.000000	0.000017	-0.000002	0.000000	0.000000
36.279579	12.935303	22.782970	0.616824	-0.640249	2.261166	0.000000	-0.080246	0.000000	0.000017	-0.000002	0.000000	0.000000
36.721789	12.555059	23.096473	0.277853	-0.123987	2.239954	0.000000	-0.021430	0.000000	0.000016	-0.000001	0.000000	0.000000
37.019112	12.397419	23.174087	0.252343	-0.137058	2.233583	0.000000	-0.021430	0.000000	0.000016	-0.000001	0.000000	0.000000
37.352445	12.238724	23.270344	0.223744	-0.151712	2.226440	0.000000	-0.021430	0.000000	0.000015	-0.000001	0.000000	0.000000
37.685779	12.099094	23.376370	0.195144	-0.166366	2.219297	0.000000	-0.021430	0.000000	0.000015	-0.000001	0.000000	0.000000
38.020362	11.978115	23.492617	0.166438	-0.181075	2.212128	0.000000	-0.021430	0.000000	0.000015	-0.000001	0.000000	0.000000
38.317684	11.886728	23.604179	0.170074	-0.252023	2.205756	0.000000	-0.026838	0.000000	0.000014	-0.000001	0.000000	0.000000
38.758644	11.888260	23.564989	-0.173560	0.340559	2.207850	0.000000	0.036342	0.000000	0.000014	-0.000001	0.000000	0.000000
39.199604	12.195187	23.008051	-0.525124	0.917646	2.237869	0.000000	0.099936	0.000000	0.000014	-0.000000	0.000000	0.000000
39.640564	12.821534	21.958706	-0.900679	1.452981	2.296154	0.000000	0.164669	0.000000	0.000013	-0.000000	0.000000	0.000000
40.081524	13.795914	20.464697	-1.317384	1.922206	2.383369	0.000000	0.231277	0.000000	0.000013	0.000000	0.000000	0.000000
40.527484	15.180424	18.571427	-1.798104	2.305258	2.501979	0.000000	0.300924	0.000000	0.000014	0.000001	0.000000	0.000000
41.076544	16.947142	16.443821	-1.400561	1.592612	2.646674	0.000000	0.225363	0.000000	0.000014	0.000000	0.000000	0.000000
41.625604	18.220069	15.032275	-0.904090	0.993404	2.748721	0.000000	0.145805	0.000000	0.000014	-0.000000	0.000000	0.000000
42.174664	18.909293	14.236248	-0.343758	0.464953	2.806310	0.000000	0.063660	0.000000	0.000013	-0.000001	0.000000	0.000000
42.723724	18.966129	13.999041	0.240855	-0.030379	2.818421	0.000000	-0.019613	0.000000	0.000013	-0.000001	0.000000	0.000000
43.022297	18.856764	14.001711	0.174987	-0.015135	2.814764	0.000000	-0.012250	0.000000	0.000013	-0.000001	0.000000	0.000000
43.502297	18.701370	14.032699	0.148752	-0.049425	2.808884	0.000000	-0.012250	0.000000	0.000012	-0.000001	0.000000	0.000000
43.982297	18.571160	14.096606	0.122518	-0.083714	2.803005	0.000000	-0.012250	0.000000	0.000011	-0.000001	0.000000	0.000000
44.462297	18.466136	14.193430	0.096283	-0.118003	2.797125	0.000000	-0.012250	0.000000	0.000011	-0.000001	0.000000	0.000000
44.942297	18.386297	14.323172	0.070049	-0.152293	2.791246	0.000000	-0.012250	0.000000	0.000010	-0.000001	0.000000	0.000000
45.423547	18.331760	14.486119	-0.047080	-0.114898	2.785368	0.000000	0.001550	0.000000	0.000010	-0.000001	0.000000	0.000000
45.720870	18.364589	14.560626	-0.111314	-0.097653	2.785830	0.000000	0.008829	0.000000	0.000010	-0.000001	0.000000	0.000000
46.269930	18.177607	14.949435	0.449848	-0.614663	2.768105	0.000000	-0.073298	0.000000	0.000009	-0.000001	0.000000	0.000000
46.818990	17.388281	15.926548	0.979235	-1.175453	2.705580	0.000000	-0.154125	0.000000	0.000008	-0.000002	0.000000	0.000000
47.368050	16.052367	17.561564	1.439454	-1.819969	2.599362	0.000000	-0.232218	0.000000	0.000007	-0.000002	0.000000	0.000000
47.917110	14.264227	19.970940	1.797997	-2.594117	2.451336	0.000000	-0.306191	0.000000	0.000006	-0.000002	0.000000	0.000000
48.363070	12.872763	22.113029	1.333210	-2.189011	2.330079	0.000000	-0.237892	0.000000	0.000005	-0.000002	0.000000	0.000000
48.804030	11.877187	23.828096	0.933103	-1.685582	2.239639	0.000000	-0.172700	0.000000	0.000004	-0.000002	0.000000	0.000000
49.244990	11.214411	25.063535	0.575628	-1.105460	2.177485	0.000000	-0.109474	0.000000	0.000003	-0.000002	0.000000	0.000000
49.685950	10.854155	25.763135	0.244451	-0.475041	2.142910	0.000000	-0.047496	0.000000	0.000003	-0.000002	0.000000	0.000000
50.128160	10.780084	25.894781	-0.049239	0.113443	2.135531	0.000000	0.008705	0.000000	0.000002	-0.000002	0.000000	0.000000
50.425482	10.817584	25.830781	-0.076886	0.101813	2.138120	0.000000	0.008705	0.000000	0.000001	-0.000002	0.000000	0.000000
50.758816	10.879174	25.767251	-0.107883	0.088775	2.141022	0.000000	0.008705	0.000000	0.000001	-0.000002	0.000000	0.000000
51.092149	10.961428	25.712414	-0.138879	0.075737	2.143924	0.000000	0.008705	0.000000	0.000000	-0.000002	0.000000	0.000000
51.426732	11.064546	25.666633	-0.080228	-0.145571	2.146816	0.000000	-0.008711	0.000000	-0.000000	-0.000002	0.000000	0.000000
51.724055	11.120294	25.756713	-0.080003	-0.220564	2.144226	0.000000	-0.013969	0.000000	-0.000001	-0.000002	0.000000	0.000000
52.165015	11.336064	25.664664	-0.411172	0.428517	2.151655	0.000000	0.047694	0.000000	-0.000001	-0.000002	0.000000	0.000000
52.605975	11.851048	25.006621	-0.761128	1.058101	2.186369	0.000000	0.109900	0.000000	-0.000002	-0.000002	0.000000	0.000000
53.046935	12.688773	23.812524	-1.145857	1.639542	2.248763	0.000000	0.173357	0.000000	-0.000003	-0.000002	0.000000	0.000000
53.487895	13.887514	22.136704	-1.582936	2.146386	2.339548	0.000000	0.238789	0.000000	-0.000004	-0.000002	0.000000	0.000000
53.933855	15.522588	20.030355	-2.096562	2.556909	2.461261	0.000000	0.307340	0.000000	-0.000004	-0.000002	0.000000	0.000000
54.482915	17.627734	17.660130	-1.714834	1.785451	2.609830	0.000000	0.233036	0.000000	-0.000005	-0.000002	0.000000	0.000000
55.031975	19.244299	16.062671	-1.211980	1.141167	2.716405	0.000000	0.154598	0.000000	-0.000006	-0.000002	0.000000	0.000000
55.581035	20.258098	15.124194	-0.623517	0.578166	2.779095	0.000000	0.073418	0.000000	-0.000007	-0.000001	0.000000	0.000000
56.130095	20.597520	14.777853	0.008988	0.056346	2.796789	0.000000	-0.009064	0.000000	-0.000008	-0.000001	0.000000	0.000000
56.428668	20.628628	14.727235	-0.059358	0.074574	2.796265	0.000000	-0.001756	0.000000	-0.000008	-0.000001	0.000000	0.000000
56.762001	20.673605	14.685105	-0.075574	0.051815	2.795680	0.000000	-0.001756	0.000000	-0.000008	-0.000001	0.000000	0.000000
57.095334	20.729393	14.658149	-0.091789	0.029055	2.795095	0.000000	-0.001756	0.000000	-0.000009	-0.000001	0.000000	0.000000
57.429918	20.796261	14.646350	-0.108066	0.006210	2.794508	0.000000	-0.001756	0.000000	-0.000009	-0.000001	0.000000	0.000000
57.727240	20.864822	14.648693	-0.177050	0.024186	2.793986	0.000000	0.005544	0.000000	-0.000010	-0.000001	0.000000	0.000000
58.276300	20.703315	14.903381	0.469461	-0.490786	2.774391	0.000000	-0.076816	0.000000	-0.000010	-0.000001	0.000000	0.000000
58.825360	19.845949	15.739333	1.082811	-1.040716	2.709883	0.000000	-0.157814	0.000000	-0.000010	-0.000000	0.000000	0.000000
59.374420	18.353285	17.216093	1.619677	-1.664774	2.601607	0.000000	-0.236013	0.000000	-0.000011	-0.000000	0.000000	0.000000
59.923480	16.330756	19.438845	2.042138	-2.407410	2.451482	0.000000	-0.310026	0.000000	-0.000011	0.000000	0.000000	0.000000
60.369440	14.747778	21.414414	1.520031	-2.003813	2.328512	0.000000	-0.241745	0.000000	-0.000011	-0.000000	0.000000	0.000000
60.810400	13.609305	22.969970	1.071570	-1.510422	2.236360	0.000000	-0.176615	0.000000	-0.000011	-0.000000	0.000000	0.000000
61.251360	12.843337	24.058312	0.672066	-0.948307	2.172457	0.000000	-0.113497	0.000000	-0.000011	-0.000001	0.000000	0.000000
61.692320	12.414879	24.629922	0.303267	-0.343045	2.136076	0.000000	-0.051671	0.000000	-0.000011	-0.000001	0.000000	0.000000
62.134530	12.304411	24.658247	-0.021601	0.217296	2.126808	0.000000	0.004350	0.000000	-0.000012	-0.000001	0.000000	0.000000
62.431853	12.324444	24.532787	-0.045776	0.204669	2.128101	0.000000	0.004350	0.000000	-0.000012	-0.000001	0.000000	0.000000
62.765186	12.363996	24.401060	-0.072879	0.190512	2.129552	0.000000	0.004350	0.000000	-0.000013	-0.000001	0.000000	0.000000
63.098520	12.421616	24.278771	-0.099982	0.176356	2.131002	0.000000	0.004350	0.000000	-0.000013	-0.000001	0.000000	0.000000
63.433103	12.497623	24.165514	-0.127187	0.162146	2.132458	0.000000	0.004350	0.000000	-0.000013	-0.000001	0.000000	0.000000
63.730426	12.580443	24.072849	-0.120508	0.090477	2.133752	0.000000	-0.000883	0.000000	-0.000014	-0.000001	0.000000	0.000000
64.171386	12.846959	23.727950	-0.486187	0.688701	2.146903	0.000000	0.060584	0.000000	-0.000014	-0.000002	0.000000	0.000000
64.612346	13.444514	22.867321	-0.874078	1.255589	2.187284	0.000000	0.122740	0.000000	-0.000015	-0.000002	0.000000	0.000000
65.053306	14.400409	21.530120	-1.301904	1.765349	2.255356	0.000000	0.186294	0.000000	-0.000016	-0.000002	0.000000	0.000000
65.494266	15.758314	19.777188	-1.789210	2.194787	2.351894	0.000000	0.251971	0.000000	-0.000017	-0.000003	0.000000	0.000000
65.940226	17.603430	17.663484	-2.362951	2.525115	2.479570	0.000000	0.320919	0.000000	-0.000018	-0.000003	0.000000	0.000000
66.489286	19.968813	15.298956	-1.919610	1.806807	2.635410	0.000000	0.245903	0.000000	-0.000020	-0.000003	0.000000	0.000000
67.038346	21.769566	13.648342	-1.340678	1.217195	2.748803	0.000000	0.166526	0.000000	-0.000021	-0.000002	0.000000	0.000000
67.587406	22.878492	12.594070	-0.667048	0.714280	2.817736	0.000000	0.084196	0.000000	-0.000022	-0.000001	0.000000	0.000000
68.136466	23.217262	12.061047	0.053700	0.262241	2.840986	0.000000	0.000371	0.000000	-0.000023	-0.000000	0.000000	0.000000
68.435038	23.225266	11.893659	-0.019835	0.266869	2.843314	0.000000	0.007796	0.000000	-0.000023	-0.000001	0.000000	0.000000
68.768372	23.243275	11.725753	-0.034193	0.236847	2.845913	0.000000	0.007796	0.000000	-0.000023	-0.000001	0.000000	0.000000
69.101705	23.270856	11.577862	-0.048550	0.206825	2.848512	0.000000	0.007796	0.000000	-0.000023	-0.000001	0.000000	0.000000
69.436288	23.308167	11.449544	-0.062962	0.176690	2.851120	0.000000	0.007796	0.000000	-0.000023	-0.000001	0.000000	0.000000
69.733611	23.349414	11.352438	-0.136789	0.179579	2.853438	0.000000	0.015253	0.000000	-0.000023	-0.000001	0.000000	0.000000
70.282671	23.098604	11.382630	0.590883	-0.234893	2.838631	0.000000	-0.069112	0.000000	-0.000023	0.000000	0.000000	0.000000
