#ParticleID	Turn	x[m]	xp	y[m]	yp	z[m]	dE[GeV]# s	beta_x	beta_y	alpha_x	alpha_y	D_x	D_y	D_px	D_py	orbit_x	orbit_px	orbit_y	orbit_py
0.300000	11.807262	25.045214	-0.010348	-0.026981	2.618153	0.000000	-0.000003	0.000000	-0.000001	0.000002	0.000000	0.000000
0.601250	11.821184	25.065097	-0.035865	-0.039018	2.618151	0.000000	-0.000003	0.000000	-0.000001	0.000002	0.000000	0.000000
0.898573	11.849999	25.091831	-0.031989	-0.112430	2.618150	0.000000	-0.006424	0.000000	-0.000000	0.000002	0.000000	0.000000
1.339533	12.030262	24.912635	-0.378357	0.517261	2.631610	0.000000	0.067534	0.000000	0.000001	0.000002	0.000000	0.000000
1.780493	12.522433	24.186398	-0.742011	1.123417	2.677821	0.000000	0.142262	0.000000	0.000001	0.000002	0.000000	0.000000
2.221453	13.348997	22.946163	-1.139566	1.678459	2.757309	0.000000	0.218609	0.000000	0.000002	0.000002	0.000000	0.000000
2.662413	14.547719	21.248360	-1.589184	2.157133	2.870980	0.000000	0.297446	0.000000	0.000003	0.000002	0.000000	0.000000
3.108373	16.194091	19.145340	-2.115693	2.538791	3.021990	0.000000	0.380161	0.000000	0.000004	0.000002	0.000000	0.000000
3.657433	18.305313	16.783298	-1.706701	1.788575	3.205449	0.000000	0.287123	0.000000	0.000005	0.000002	0.000000	0.000000
4.206493	19.898153	15.170712	-1.177156	1.165755	3.336349	0.000000	0.188993	0.000000	0.000006	0.000002	0.000000	0.000000
4.755553	20.860100	14.192721	-0.564462	0.625969	3.412368	0.000000	0.087510	0.000000	0.000007	0.000001	0.000000	0.000000
5.304613	21.123208	13.779665	0.088103	0.130769	3.432158	0.000000	-0.015525	0.000000	0.000007	0.000001	0.000000	0.000000
5.603185	21.107778	13.686728	0.018765	0.144500	3.430200	0.000000	-0.006558	0.000000	0.000008	0.000001	0.000000	0.000000
5.936519	21.100534	13.598683	0.002967	0.119637	3.428014	0.000000	-0.006558	0.000000	0.000008	0.000001	0.000000	0.000000
6.269852	21.103822	13.527212	-0.012830	0.094774	3.425827	0.000000	-0.006558	0.000000	0.000009	0.000001	0.000000	0.000000
6.604435	21.117713	13.472143	-0.028687	0.069818	3.423632	0.000000	-0.006558	0.000000	0.000009	0.000001	0.000000	0.000000
6.901758	21.138961	13.437219	-0.098006	0.082747	3.421682	0.000000	0.002381	0.000000	0.000009	0.000001	0.000000	0.000000
7.450818	20.886338	13.607276	0.555384	-0.394298	3.394788	0.000000	-0.100199	0.000000	0.000010	0.000001	0.000000	0.000000
7.999878	19.933609	14.313441	1.169545	-0.899428	3.311977	0.000000	-0.201002	0.000000	0.000010	0.000001	0.000000	0.000000
8.548938	18.348070	15.606013	1.701094	-1.468622	3.174718	0.000000	-0.298240	0.000000	0.000011	0.000000	0.000000	0.000000
9.097998	16.241716	17.577059	2.112487	-2.142423	2.985445	0.000000	-0.390188	0.000000	0.000011	-0.000000	0.000000	0.000000
9.543958	14.598414	19.333337	1.585477	-1.779127	2.829743	0.000000	-0.308482	0.000000	0.000011	0.000000	0.000000	0.000000
9.984918	13.403244	20.712283	1.135188	-1.336118	2.710961	0.000000	-0.230774	0.000000	0.000011	0.000000	0.000000	0.000000
10.425878	12.580907	21.672128	0.736763	-0.832316	2.625833	0.000000	-0.155694	0.000000	0.000011	0.000001	0.000000	0.000000
10.866838	12.093836	22.169201	0.371999	-0.290644	2.573390	0.000000	-0.082387	0.000000	0.000011	0.000001	0.000000	0.000000
11.309048	11.919642	22.180359	0.053352	0.209804	2.553015	0.000000	-0.016279	0.000000	0.000012	0.000001	0.000000	0.000000
11.606371	11.895354	22.059761	0.028337	0.195809	2.548175	0.000000	-0.016279	0.000000	0.000012	0.000001	0.000000	0.000000
12.086371	11.887535	21.882629	-0.012047	0.173216	2.540360	0.000000	-0.016279	0.000000	0.000013	0.000001	0.000000	0.000000
12.566371	11.918485	21.727186	-0.052432	0.150623	2.532546	0.000000	-0.016279	0.000000	0.000014	0.000001	0.000000	0.000000
13.046371	11.988204	21.593434	-0.092816	0.128029	2.524731	0.000000	-0.016279	0.000000	0.000014	0.000001	0.000000	0.000000
13.526371	12.096692	21.481370	-0.133200	0.105436	2.516917	0.000000	-0.016279	0.000000	0.000015	0.000001	0.000000	0.000000
14.007621	12.244382	21.390790	-0.173690	0.082784	2.509082	0.000000	-0.016279	0.000000	0.000016	0.000001	0.000000	0.000000
14.304943	12.355104	21.345724	-0.168411	0.016451	2.504241	0.000000	-0.022419	0.000000	0.000016	0.000001	0.000000	0.000000
14.745903	12.662121	21.097599	-0.530477	0.544100	2.509986	0.000000	0.048503	0.000000	0.000017	0.000002	0.000000	0.000000
15.186863	13.297891	20.393311	-0.916779	1.046992	2.547097	0.000000	0.119978	0.000000	0.000017	0.000002	0.000000	0.000000
15.627823	14.291462	19.264904	-1.344966	1.502247	2.615995	0.000000	0.192819	0.000000	0.000018	0.000003	0.000000	0.000000
16.068783	15.688226	17.763720	-1.834601	1.889151	2.717467	0.000000	0.267856	0.000000	0.000020	0.000003	0.000000	0.000000
16.514743	17.575657	15.936561	-2.412812	2.190843	2.854362	0.000000	0.346406	0.000000	0.000021	0.000004	0.000000	0.000000
17.063803	19.999878	13.896422	-1.976269	1.546783	3.020828	0.000000	0.259075	0.000000	0.000023	0.000003	0.000000	0.000000
17.612863	21.864766	12.499251	-1.400133	1.012896	3.138010	0.000000	0.167148	0.000000	0.000024	0.000002	0.000000	0.000000
18.161923	23.038595	11.645531	-0.725098	0.551156	3.203830	0.000000	0.072257	0.000000	0.000025	0.000001	0.000000	0.000000
18.710983	23.438451	11.274454	0.001154	0.128674	3.217120	0.000000	-0.023916	0.000000	0.000026	0.000000	0.000000	0.000000
19.009556	23.478141	11.188135	-0.072857	0.130981	3.212489	0.000000	-0.015512	0.000000	0.000026	0.000001	0.000000	0.000000
19.342889	23.531470	11.110915	-0.087130	0.100677	3.207318	0.000000	-0.015512	0.000000	0.000026	0.000001	0.000000	0.000000
19.676223	23.594314	11.053899	-0.101403	0.070372	3.202147	0.000000	-0.015512	0.000000	0.000026	0.000001	0.000000	0.000000
20.010806	23.667257	11.016850	-0.232990	0.094538	3.196976	0.000000	0.000328	0.000000	0.000027	0.000001	0.000000	0.000000
20.308129	23.809741	10.968729	-0.308432	0.095962	3.197074	0.000000	0.008679	0.000000	0.000027	0.000001	0.000000	0.000000
20.857189	23.737770	11.085325	0.438737	-0.309571	3.175619	0.000000	-0.086712	0.000000	0.000027	-0.000000	0.000000	0.000000
21.406249	22.857548	11.656667	1.154915	-0.737153	3.102136	0.000000	-0.180565	0.000000	0.000027	-0.000001	0.000000	0.000000
21.955309	21.231251	12.723451	1.789516	-1.217242	2.977927	0.000000	-0.271215	0.000000	0.000026	-0.000002	0.000000	0.000000
22.504369	18.973751	14.361660	2.297714	-1.784032	2.805194	0.000000	-0.357055	0.000000	0.000025	-0.000003	0.000000	0.000000
22.950329	17.194560	15.832551	1.705941	-1.500310	2.663256	0.000000	-0.279846	0.000000	0.000024	-0.000002	0.000000	0.000000
23.391289	15.919402	17.005333	1.196805	-1.149179	2.556178	0.000000	-0.206279	0.000000	0.000023	-0.000001	0.000000	0.000000
23.832249	15.067546	17.844117	0.742347	-0.745760	2.480992	0.000000	-0.135061	0.000000	0.000022	-0.000001	0.000000	0.000000
24.273209	14.600071	18.310740	0.321805	-0.308411	2.436841	0.000000	-0.065381	0.000000	0.000022	-0.000000	0.000000	0.000000
24.715418	14.495742	18.383726	-0.048582	0.097829	2.423219	0.000000	-0.002387	0.000000	0.000022	0.000000	0.000000	0.000000
25.012741	14.530743	18.330407	-0.069141	0.081501	2.422509	0.000000	-0.002387	0.000000	0.000022	0.000000	0.000000	0.000000
25.346075	14.584520	18.282175	-0.092191	0.063196	2.421714	0.000000	-0.002387	0.000000	0.000022	0.000000	0.000000	0.000000
25.679408	14.653664	18.246146	-0.115240	0.044890	2.420918	0.000000	-0.002387	0.000000	0.000022	0.000000	0.000000	0.000000
26.013991	14.738221	18.222624	-0.018810	-0.121315	2.420094	0.000000	-0.022021	0.000000	0.000022	0.000000	0.000000	0.000000
26.311314	14.755406	18.299686	-0.002814	-0.182738	2.413547	0.000000	-0.027938	0.000000	0.000022	0.000000	0.000000	0.000000
26.752274	14.939668	18.262404	-0.416636	0.266962	2.416338	0.000000	0.040608	0.000000	0.000023	0.000001	0.000000	0.000000
27.193234	15.495871	17.832386	-0.849493	0.704515	2.449428	0.000000	0.109617	0.000000	0.000023	0.000001	0.000000	0.000000
27.634194	16.449426	17.029195	-1.321162	1.110013	2.513193	0.000000	0.179874	0.000000	0.000024	0.000002	0.000000	0.000000
28.075154	17.843899	15.889377	-1.853190	1.465006	2.608361	0.000000	0.252179	0.000000	0.000025	0.000002	0.000000	0.000000
28.521114	19.767223	14.447621	-2.474857	1.754254	2.737617	0.000000	0.327800	0.000000	0.000026	0.000003	0.000000	0.000000
29.070174	22.211774	12.841291	-1.951032	1.188614	2.894934	0.000000	0.244400	0.000000	0.000027	0.000002	0.000000	0.000000
29.619234	24.001559	11.806246	-1.289395	0.707635	3.005199	0.000000	0.156665	0.000000	0.000028	0.000001	0.000000	0.000000
30.168294	25.010157	11.268761	-0.536682	0.277061	3.066459	0.000000	0.066151	0.000000	0.000029	0.000000	0.000000	0.000000
30.717354	25.166324	11.190552	0.253940	-0.133780	3.077625	0.000000	-0.025537	0.000000	0.000029	-0.000001	0.000000	0.000000
31.015927	25.057608	11.261036	0.175916	-0.131520	3.072401	0.000000	-0.017498	0.000000	0.000028	-0.000000	0.000000	0.000000
31.349260	24.944902	11.358754	0.162202	-0.161633	3.066568	0.000000	-0.017498	0.000000	0.000028	-0.000000	0.000000	0.000000
31.682593	24.841339	11.476546	0.148488	-0.191745	3.060736	0.000000	-0.017498	0.000000	0.000028	-0.000000	0.000000	0.000000
32.017177	24.746582	11.614969	0.134722	-0.221971	3.054881	0.000000	-0.017498	0.000000	0.000028	-0.000000	0.000000	0.000000
32.314499	24.670107	11.754949	0.058046	-0.218124	3.049679	0.000000	-0.009531	0.000000	0.000028	-0.000000	0.000000	0.000000
32.863559	24.183663	12.233654	0.822667	-0.658886	3.019564	0.000000	-0.100006	0.000000	0.000027	-0.000001	0.000000	0.000000
33.412619	22.884668	13.219146	1.529179	-1.146579	2.940187	0.000000	-0.188707	0.000000	0.000026	-0.000002	0.000000	0.000000
33.961679	20.864877	14.781618	2.127677	-1.715940	2.812957	0.000000	-0.274062	0.000000	0.000025	-0.000003	0.000000	0.000000
34.510739	18.266959	17.032362	2.575886	-2.407524	2.640131	0.000000	-0.354554	0.000000	0.000023	-0.000004	0.000000	0.000000
34.956699	16.246928	19.045597	1.969965	-2.088011	2.498357	0.000000	-0.281625	0.000000	0.000022	-0.000003	0.000000	0.000000
35.397659	14.740577	20.710936	1.459064	-1.674239	2.389554	0.000000	-0.212331	0.000000	0.000020	-0.000003	0.000000	0.000000
35.838619	13.653814	21.976249	1.014823	-1.184290	2.310746	0.000000	-0.145455	0.000000	0.000019	-0.000002	0.000000	0.000000
36.279579	12.936988	22.783963	0.616947	-0.640457	2.261033	0.000000	-0.080236	0.000000	0.000018	-0.000002	0.000000	0.000000
36.721789	12.556653	23.097640	0.277939	-0.124170	2.239824	0.000000	-0.021423	0.000000	0.000018	-0.000001	0.000000	0.000000
37.019112	12.398962	23.175363	0.252431	-0.137241	2.233455	0.000000	-0.021423	0.000000	0.000017	-0.000001	0.000000	0.000000
37.352445	12.240207	23.271742	0.223834	-0.151895	2.226315	0.000000	-0.021423	0.000000	0.000017	-0.000001	0.000000	0.000000
37.685779	12.100517	23.377890	0.195237	-0.166549	2.219174	0.000000	-0.021423	0.000000	0.000017	-0.000001	0.000000	0.000000
38.020362	11.979475	23.494261	0.166533	-0.181258	2.212007	0.000000	-0.021423	0.000000	0.000016	-0.000001	0.000000	0.000000
38.317684	11.888031	23.605932	0.170174	-0.252210	2.205638	0.000000	-0.026831	0.000000	0.000016	-0.000001	0.000000	0.000000
38.758644	11.889487	23.566885	-0.173489	0.340422	2.207735	0.000000	0.036346	0.000000	0.000015	-0.000001	0.000000	0.000000
39.199604	12.196363	23.010045	-0.525078	0.917564	2.237754	0.000000	0.099938	0.000000	0.000015	-0.000000	0.000000	0.000000
39.640564	12.822679	21.960746	-0.900657	1.452958	2.296039	0.000000	0.164667	0.000000	0.000015	-0.000000	0.000000	0.000000
40.081524	13.797050	20.466732	-1.317383	1.922243	2.383253	0.000000	0.231272	0.000000	0.000015	0.000000	0.000000	0.000000
40.527484	15.181569	18.573403	-1.798126	2.305354	2.501860	0.000000	0.300916	0.000000	0.000015	0.000001	0.000000	0.000000
41.076544	16.948286	16.445722	-1.400537	1.592653	2.646552	0.000000	0.225359	0.000000	0.000015	0.000000	0.000000	0.000000
41.625604	18.221162	15.034159	-0.904022	0.993394	2.748598	0.000000	0.145805	0.000000	0.000015	-0.000000	0.000000	0.000000
42.174664	18.910288	14.238171	-0.343651	0.464891	2.806188	0.000000	0.063664	0.000000	0.000015	-0.000001	0.000000	0.000000
42.723724	18.966988	14.001062	0.240994	-0.030498	2.818302	0.000000	-0.019605	0.000000	0.000014	-0.000001	0.000000	0.000000
43.022297	18.857541	14.003799	0.175125	-0.015245	2.814647	0.000000	-0.012242	0.000000	0.000014	-0.000001	0.000000	0.000000
43.502297	18.702014	14.034891	0.148890	-0.049530	2.808772	0.000000	-0.012242	0.000000	0.000013	-0.000001	0.000000	0.000000
43.982297	18.571672	14.098896	0.122655	-0.083814	2.802896	0.000000	-0.012242	0.000000	0.000013	-0.000001	0.000000	0.000000
44.462297	18.466516	14.195814	0.096421	-0.118098	2.797020	0.000000	-0.012242	0.000000	0.000012	-0.000001	0.000000	0.000000
44.942297	18.386545	14.325645	0.070186	-0.152383	2.791144	0.000000	-0.012242	0.000000	0.000012	-0.000001	0.000000	0.000000
45.423547	18.331876	14.488676	-0.046943	-0.114971	2.785270	0.000000	0.001557	0.000000	0.000011	-0.000001	0.000000	0.000000
45.720870	18.364624	14.563225	-0.111177	-0.097716	2.785734	0.000000	0.008835	0.000000	0.000011	-0.000001	0.000000	0.000000
46.269930	18.177491	14.952146	0.449983	-0.614806	2.768014	0.000000	-0.073288	0.000000	0.000010	-0.000002	0.000000	0.000000
46.818990	17.388024	15.929466	0.979357	-1.175688	2.705495	0.000000	-0.154112	0.000000	0.000009	-0.000002	0.000000	0.000000
47.368050	16.051986	17.564796	1.439555	-1.820311	2.599285	0.000000	-0.232202	0.000000	0.000008	-0.000002	0.000000	0.000000
47.917110	14.263749	19.974618	1.798070	-2.594591	2.451268	0.000000	-0.306174	0.000000	0.000007	-0.000002	0.000000	0.000000
48.363070	12.872220	22.117094	1.333285	-2.189401	2.330019	0.000000	-0.237876	0.000000	0.000006	-0.000002	0.000000	0.000000
48.804030	11.876575	23.832462	0.933183	-1.685872	2.239585	0.000000	-0.172685	0.000000	0.000005	-0.000002	0.000000	0.000000
49.244990	11.213725	25.068107	0.575716	-1.105636	2.177438	0.000000	-0.109461	0.000000	0.000004	-0.000002	0.000000	0.000000
49.685950	10.853387	25.767809	0.244552	-0.475095	2.142868	0.000000	-0.047484	0.000000	0.000003	-0.000002	0.000000	0.000000
50.128160	10.779220	25.899448	-0.049123	0.113502	2.135494	0.000000	0.008717	0.000000	0.000002	-0.000002	0.000000	0.000000
50.425482	10.816651	25.835412	-0.076773	0.101874	2.138086	0.000000	0.008717	0.000000	0.000002	-0.000002	0.000000	0.000000
50.758816	10.878166	25.771841	-0.107771	0.088838	2.140992	0.000000	0.008717	0.000000	0.000001	-0.000002	0.000000	0.000000
51.092149	10.960346	25.716962	-0.138769	0.075802	2.143899	0.000000	0.008717	0.000000	0.000001	-0.000002	0.000000	0.000000
51.426732	11.063392	25.671136	-0.080130	-0.145540	2.146794	0.000000	-0.008700	0.000000	0.000000	-0.000002	0.000000	0.000000
51.724055	11.119083	25.761197	-0.079910	-0.220542	2.144208	0.000000	-0.013958	0.000000	-0.000000	-0.000002	0.000000	0.000000
52.165015	11.334758	25.669077	-0.411050	0.428657	2.151642	0.000000	0.047705	0.000000	-0.000001	-0.000002	0.000000	0.000000
52.605975	11.849618	25.010860	-0.760970	1.058353	2.186361	0.000000	0.109910	0.000000	-0.000002	-0.000002	0.000000	0.000000
53.046935	12.687186	23.816496	-1.145656	1.639894	2.248759	0.000000	0.173368	0.000000	-0.000003	-0.000002	0.000000	0.000000
53.487895	13.885728	22.140328	-1.582684	2.146822	2.339548	0.000000	0.238800	0.000000	-0.000004	-0.000002	0.000000	0.000000
53.933855	15.520549	20.033559	-2.096246	2.557409	2.461267	0.000000	0.307351	0.000000	-0.000005	-0.000002	0.000000	0.000000
54.482915	17.625376	17.662856	-1.714573	1.785827	2.609841	0.000000	0.233046	0.000000	-0.000006	-0.000002	0.000000	0.000000
55.031975	19.241693	16.065039	-1.211792	1.141446	2.716422	0.000000	0.154608	0.000000	-0.000007	-0.000002	0.000000	0.000000
55.581035	20.255332	15.126300	-0.623415	0.578367	2.779117	0.000000	0.073427	0.000000	-0.000008	-0.000001	0.000000	0.000000
56.130095	20.594693	14.779775	0.008996	0.056484	2.796816	0.000000	-0.009056	0.000000	-0.000008	-0.000001	0.000000	0.000000
56.428668	20.625794	14.729070	-0.059345	0.074719	2.796295	0.000000	-0.001748	0.000000	-0.000009	-0.000001	0.000000	0.000000
56.762001	20.670763	14.686843	-0.075563	0.051962	2.795712	0.000000	-0.001748	0.000000	-0.000009	-0.000001	0.000000	0.000000
57.095334	20.726544	14.659788	-0.091781	0.029205	2.795130	0.000000	-0.001748	0.000000	-0.000009	-0.000001	0.000000	0.000000
57.429918	20.793407	14.647888	-0.108059	0.006362	2.794546	0.000000	-0.001748	0.000000	-0.000010	-0.000001	0.000000	0.000000
57.727240	20.861965	14.650140	-0.177038	0.024344	2.794027	0.000000	0.005553	0.000000	-0.000010	-0.000001	0.000000	0.000000
58.276300	20.700497	14.904676	0.469377	-0.490666	2.774436	0.000000	-0.076809	0.000000	-0.000011	-0.000001	0.000000	0.000000
58.825360	19.843273	15.740513	1.082638	-1.040626	2.709932	0.000000	-0.157808	0.000000	-0.000011	-0.000001	0.000000	0.000000
59.374420	18.350843	17.217186	1.619427	-1.664706	2.601659	0.000000	-0.236009	0.000000	-0.000011	-0.000000	0.000000	0.000000
59.923480	16.328624	19.439875	2.041828	-2.407361	2.451535	0.000000	-0.310023	0.000000	-0.000011	0.000000	0.000000	0.000000
60.369440	14.745892	21.415381	1.519786	-2.003725	2.328567	0.000000	-0.241741	0.000000	-0.000011	-0.000000	0.000000	0.000000
60.810400	13.607610	22.970844	1.071378	-1.510298	2.236417	0.000000	-0.176610	0.000000	-0.000012	-0.000000	0.000000	0.000000
61.251360	12.841792	24.059064	0.671919	-0.948154	2.172517	0.000000	-0.113490	0.000000	-0.000012	-0.000001	0.000000	0.000000
61.692320	12.413447	24.630529	0.303157	-0.342870	2.136139	0.000000	-0.051663	0.000000	-0.000012	-0.000001	0.000000	0.000000
62.134530	12.303061	24.658693	-0.021681	0.217483	2.126875	0.000000	0.004360	0.000000	-0.000013	-0.000001	0.000000	0.000000
62.431853	12.323143	24.533123	-0.045859	0.204855	2.128171	0.000000	0.004360	0.000000	-0.000013	-0.000001	0.000000	0.000000
62.765186	12.362751	24.401272	-0.072965	0.190698	2.129625	0.000000	0.004360	0.000000	-0.000014	-0.000001	0.000000	0.000000
63.098520	12.420430	24.278859	-0.100072	0.176540	2.131079	0.000000	0.004360	0.000000	-0.000014	-0.000001	0.000000	0.000000
63.433103	12.496498	24.165479	-0.127280	0.162330	2.132538	0.000000	0.004360	0.000000	-0.000014	-0.000001	0.000000	0.000000
63.730426	12.579373	24.072705	-0.120605	0.090660	2.133835	0.000000	-0.000873	0.000000	-0.000015	-0.000001	0.000000	0.000000
64.171386	12.845965	23.727648	-0.486262	0.688875	2.146991	0.000000	0.060595	0.000000	-0.000016	-0.000002	0.000000	0.000000
64.612346	13.443578	22.866872	-0.874136	1.255747	2.187378	0.000000	0.122754	0.000000	-0.000016	-0.000002	0.000000	0.000000
65.053306	14.399516	21.529542	-1.301946	1.765483	2.255457	0.000000	0.186311	0.000000	-0.000017	-0.000003	0.000000	0.000000
65.494266	15.757452	19.776505	-1.789238	2.194891	2.352002	0.000000	0.251990	0.000000	-0.000019	-0.000003	0.000000	0.000000
65.940226	17.602587	17.662723	-2.362966	2.525184	2.479687	0.000000	0.320941	0.000000	-0.000020	-0.000003	0.000000	0.000000
66.489286	19.968008	15.298117	-1.919664	1.806883	2.635539	0.000000	0.245921	0.000000	-0.000022	-0.000003	0.000000	0.000000
67.038346	21.768839	13.647413	-1.340767	1.217282	2.748940	0.000000	0.166540	0.000000	-0.000023	-0.000002	0.000000	0.000000
67.587406	22.877878	12.593036	-0.667164	0.714385	2.817880	0.000000	0.084205	0.000000	-0.000024	-0.000001	0.000000	0.000000
68.136466	23.216787	12.059885	0.053563	0.262372	2.841134	0.000000	0.000376	0.000000	-0.000025	-0.000001	0.000000	0.000000
68.435038	23.224874	11.892421	-0.019972	0.266993	2.843464	0.000000	0.007801	0.000000	-0.000025	-0.000001	0.000000	0.000000
68.768372	23.242974	11.724435	-0.034330	0.236966	2.846064	0.000000	0.007801	0.000000	-0.000025	-0.000001	0.000000	0.000000
69.101705	23.270647	11.576467	-0.048688	0.206939	2.848664	0.000000	0.007801	0.000000	-0.000025	-0.000001	0.000000	0.000000
69.436288	23.308049	11.448074	-0.063100	0.176799	2.851275	0.000000	0.007801	0.000000	-0.000025	-0.000001	0.000000	0.000000
69.733611	23.349379	11.350905	-0.136928	0.179680	2.853594	0.000000	0.015258	0.000000	-0.000026	-0.000001	0.000000	0.000000
70.282671	23.098721	11.380963	0.590747	-0.234747	2.838788	0.000000	-0.069111	0.000000	-0.000026	0.000000	0.000000	0.000000
