#ParticleID	Turn	x[m]	xp	y[m]	yp	z[m]	dE[GeV]# s	beta_x	beta_y	alpha_x	alpha_y	D_x	D_y	D_px	D_py	orbit_x	orbit_px	orbit_y	orbit_py
0.300000	11.829031	24.958103	-0.012960	-0.027731	2.618221	0.000000	-0.000029	0.000000	0.000000	0.000000	0.000000	0.000000
0.601250	11.844513	24.978450	-0.038431	-0.039810	2.618212	0.000000	-0.000029	0.000000	0.000000	0.000000	0.000000	0.000000
0.898573	11.874840	25.005668	-0.034450	-0.113053	2.618203	0.000000	-0.006450	0.000000	0.000000	0.000000	0.000000	0.000000
1.339533	12.057541	24.828025	-0.381447	0.514375	2.631653	0.000000	0.067510	0.000000	0.000000	0.000000	0.000000	0.000000
1.780493	12.552765	24.105287	-0.745872	1.118399	2.677854	0.000000	0.142238	0.000000	0.000000	0.000000	0.000000	0.000000
2.221453	13.383138	22.870337	-1.144374	1.671537	2.757333	0.000000	0.218586	0.000000	0.000001	0.000000	0.000000	0.000000
2.662413	14.586597	21.179365	-1.595159	2.148622	2.870995	0.000000	0.297424	0.000000	0.000001	0.000000	0.000000	0.000000
3.108373	16.238923	19.084507	-2.123121	2.529076	3.021995	0.000000	0.380139	0.000000	0.000001	0.000000	0.000000	0.000000
3.657433	18.357714	16.731771	-1.712978	1.781243	3.205442	0.000000	0.287101	0.000000	0.000001	0.000000	0.000000	0.000000
4.206493	19.956607	15.126174	-1.181839	1.160284	3.336331	0.000000	0.188971	0.000000	0.000001	0.000000	0.000000	0.000000
4.755553	20.922665	14.153353	-0.567221	0.621969	3.412340	0.000000	0.087489	0.000000	0.000001	0.000000	0.000000	0.000000
5.304613	21.187649	13.744016	0.087463	0.127955	3.432119	0.000000	-0.015545	0.000000	0.000001	0.000000	0.000000	0.000000
5.603185	21.172690	13.652825	0.017998	0.141558	3.430155	0.000000	-0.006578	0.000000	0.000001	0.000000	0.000000	0.000000
5.936519	21.165942	13.566754	0.002249	0.116654	3.427963	0.000000	-0.006578	0.000000	0.000001	0.000000	0.000000	0.000000
6.269852	21.169692	13.497286	-0.013500	0.091750	3.425770	0.000000	-0.006578	0.000000	0.000001	0.000000	0.000000	0.000000
6.604435	21.184015	13.444254	-0.029307	0.066752	3.423570	0.000000	-0.006578	0.000000	0.000002	0.000000	0.000000	0.000000
6.901758	21.205619	13.411164	-0.098760	0.079579	3.421614	0.000000	0.002362	0.000000	0.000002	0.000000	0.000000	0.000000
7.450818	20.952594	13.584309	0.556865	-0.396788	3.394711	0.000000	-0.100216	0.000000	0.000002	0.000000	0.000000	0.000000
7.999878	19.997052	14.292920	1.173156	-0.901418	3.311891	0.000000	-0.201016	0.000000	0.000002	0.000000	0.000000	0.000000
8.548938	18.406488	15.587469	1.706581	-1.470254	3.174625	0.000000	-0.298251	0.000000	0.000002	0.000000	0.000000	0.000000
9.097998	16.293252	17.560164	2.119462	-2.143813	2.985347	0.000000	-0.390196	0.000000	0.000002	-0.000000	0.000000	0.000000
9.543958	14.644427	19.317995	1.590930	-1.781207	2.829642	0.000000	-0.308493	0.000000	0.000002	-0.000000	0.000000	0.000000
9.984918	13.445020	20.699043	1.139380	-1.338787	2.710854	0.000000	-0.230787	0.000000	0.000002	0.000000	0.000000	0.000000
10.425878	12.619471	21.661458	0.739885	-0.835454	2.625720	0.000000	-0.155710	0.000000	0.000002	0.000000	0.000000	0.000000
10.866838	12.130063	22.161452	0.374194	-0.294107	2.573270	0.000000	-0.082406	0.000000	0.000002	0.000000	0.000000	0.000000
11.309048	11.954300	22.175760	0.054808	0.206180	2.552886	0.000000	-0.016302	0.000000	0.000002	0.000000	0.000000	0.000000
11.606371	11.929126	22.057312	0.029862	0.192202	2.548039	0.000000	-0.016302	0.000000	0.000002	0.000000	0.000000	0.000000
12.086371	11.919790	21.883629	-0.010412	0.169637	2.540214	0.000000	-0.016302	0.000000	0.000002	0.000000	0.000000	0.000000
12.566371	11.949116	21.731609	-0.050685	0.147071	2.532390	0.000000	-0.016302	0.000000	0.000002	0.000000	0.000000	0.000000
13.046371	12.017105	21.601252	-0.090959	0.124506	2.524565	0.000000	-0.016302	0.000000	0.000002	0.000000	0.000000	0.000000
13.526371	12.123757	21.492558	-0.131232	0.101940	2.516740	0.000000	-0.016302	0.000000	0.000002	0.000000	0.000000	0.000000
14.007621	12.269500	21.405328	-0.171611	0.079316	2.508895	0.000000	-0.016302	0.000000	0.000002	0.000000	0.000000	0.000000
14.304943	12.378965	21.362319	-0.166201	0.012953	2.504048	0.000000	-0.022442	0.000000	0.000002	0.000000	0.000000	0.000000
14.745903	12.684247	21.117059	-0.528739	0.541126	2.509782	0.000000	0.048475	0.000000	0.000002	0.000000	0.000000	0.000000
15.186863	13.318662	20.415112	-0.915433	1.044678	2.546880	0.000000	0.119944	0.000000	0.000002	0.000000	0.000000	0.000000
15.627823	14.311195	19.288416	-1.343951	1.500697	2.615763	0.000000	0.192779	0.000000	0.000003	0.000000	0.000000	0.000000
16.068783	15.707192	17.788235	-1.833871	1.888436	2.717217	0.000000	0.267810	0.000000	0.000003	0.000000	0.000000	0.000000
16.514743	17.594086	15.961324	-2.412333	2.191002	2.854092	0.000000	0.346353	0.000000	0.000003	0.000000	0.000000	0.000000
17.063803	20.017299	13.921291	-1.974926	1.546429	3.020533	0.000000	0.259031	0.000000	0.000003	0.000000	0.000000	0.000000
17.612863	21.880278	12.524801	-1.398021	1.012005	3.137695	0.000000	0.167115	0.000000	0.000003	0.000000	0.000000	0.000000
18.161923	23.051431	11.672382	-0.722367	0.549664	3.203500	0.000000	0.072234	0.000000	0.000004	0.000000	0.000000	0.000000
18.710983	23.448034	11.303321	0.004312	0.126474	3.216781	0.000000	-0.023928	0.000000	0.000004	0.000000	0.000000	0.000000
19.009556	23.485856	11.218241	-0.069726	0.128949	3.212146	0.000000	-0.015523	0.000000	0.000004	0.000000	0.000000	0.000000
19.342889	23.537094	11.142345	-0.083988	0.098741	3.206972	0.000000	-0.015523	0.000000	0.000004	0.000000	0.000000	0.000000
19.676223	23.597840	11.086587	-0.098250	0.068533	3.201797	0.000000	-0.015523	0.000000	0.000004	0.000000	0.000000	0.000000
20.010806	23.668669	11.050734	-0.229833	0.092965	3.196623	0.000000	0.000315	0.000000	0.000004	0.000000	0.000000	0.000000
20.308129	23.809270	11.003522	-0.305266	0.094576	3.196717	0.000000	0.008667	0.000000	0.000004	0.000000	0.000000	0.000000
20.857189	23.733848	11.122181	0.441819	-0.311965	3.175259	0.000000	-0.086713	0.000000	0.000004	-0.000000	0.000000	0.000000
21.406249	22.850388	11.696781	1.157696	-0.740728	3.101778	0.000000	-0.180554	0.000000	0.000004	-0.000000	0.000000	0.000000
21.955309	21.221295	12.768250	1.791799	-1.222251	2.977578	0.000000	-0.271193	0.000000	0.000004	-0.000000	0.000000	0.000000
22.504369	18.961638	14.412905	2.299339	-1.790832	2.804860	0.000000	-0.357021	0.000000	0.000003	-0.000000	0.000000	0.000000
22.950329	17.180968	15.889352	1.707649	-1.505917	2.662934	0.000000	-0.279821	0.000000	0.000003	-0.000000	0.000000	0.000000
23.391289	15.904239	17.066457	1.198674	-1.153341	2.555865	0.000000	-0.206262	0.000000	0.000003	-0.000000	0.000000	0.000000
23.832249	15.050631	17.908204	0.744464	-0.748290	2.480684	0.000000	-0.135052	0.000000	0.000003	-0.000000	0.000000	0.000000
24.273209	14.581145	18.376292	0.324266	-0.309191	2.436535	0.000000	-0.065380	0.000000	0.000003	-0.000000	0.000000	0.000000
24.715418	14.474446	18.449177	-0.045710	0.098664	2.422912	0.000000	-0.002395	0.000000	0.000003	0.000000	0.000000	0.000000
25.012741	14.507747	18.395345	-0.066294	0.082392	2.422200	0.000000	-0.002395	0.000000	0.000003	0.000000	0.000000	0.000000
25.346075	14.559635	18.346498	-0.089371	0.064148	2.421401	0.000000	-0.002395	0.000000	0.000003	0.000000	0.000000	0.000000
25.679408	14.626909	18.309814	-0.112448	0.045905	2.420603	0.000000	-0.002395	0.000000	0.000003	0.000000	0.000000	0.000000
26.013991	14.709607	18.285594	-0.016278	-0.120749	2.419778	0.000000	-0.022025	0.000000	0.000003	-0.000000	0.000000	0.000000
26.311314	14.725298	18.362301	-0.000386	-0.182274	2.413229	0.000000	-0.027943	0.000000	0.000003	-0.000000	0.000000	0.000000
26.752274	14.907086	18.323863	-0.413432	0.269112	2.416016	0.000000	0.040595	0.000000	0.000003	0.000000	0.000000	0.000000
27.193234	15.460067	17.891238	-0.845365	0.708253	2.449098	0.000000	0.109595	0.000000	0.000003	0.000000	0.000000	0.000000
27.634194	16.409506	17.084110	-1.315921	1.115170	2.512852	0.000000	0.179843	0.000000	0.000003	0.000000	0.000000	0.000000
28.075154	17.798781	15.939202	-1.846598	1.471347	2.608005	0.000000	0.252140	0.000000	0.000003	0.000000	0.000000	0.000000
28.521114	19.715504	14.491365	-2.466598	1.761493	2.737243	0.000000	0.327751	0.000000	0.000003	0.000000	0.000000	0.000000
29.070174	22.151668	12.878045	-1.944108	1.194181	2.894537	0.000000	0.244363	0.000000	0.000004	0.000000	0.000000	0.000000
29.619234	23.934811	11.837617	-1.284296	0.711928	3.004787	0.000000	0.156641	0.000000	0.000004	0.000000	0.000000	0.000000
30.168294	24.938981	11.295975	-0.533768	0.280384	3.066038	0.000000	0.066141	0.000000	0.000004	0.000000	0.000000	0.000000
30.717354	25.093250	11.214539	0.254463	-0.131189	3.077202	0.000000	-0.025533	0.000000	0.000004	-0.000000	0.000000	0.000000
31.015927	24.984128	11.283412	0.176578	-0.128788	3.071979	0.000000	-0.017493	0.000000	0.000004	-0.000000	0.000000	0.000000
31.349260	24.870995	11.379282	0.162820	-0.158820	3.066148	0.000000	-0.017493	0.000000	0.000004	-0.000000	0.000000	0.000000
31.682593	24.767034	11.495172	0.149062	-0.188852	3.060317	0.000000	-0.017493	0.000000	0.000004	-0.000000	0.000000	0.000000
32.017177	24.671907	11.631631	0.135253	-0.218996	3.054464	0.000000	-0.017493	0.000000	0.000004	-0.000000	0.000000	0.000000
32.314499	24.595128	11.769821	0.058721	-0.215032	3.049263	0.000000	-0.009526	0.000000	0.000004	-0.000000	0.000000	0.000000
32.863559	24.109314	12.245287	0.820851	-0.656043	3.019154	0.000000	-0.099988	0.000000	0.000004	-0.000000	0.000000	0.000000
33.412619	22.813631	13.227701	1.525001	-1.143783	2.939791	0.000000	-0.188676	0.000000	0.000003	-0.000000	0.000000	0.000000
33.961679	20.799598	14.787037	2.121432	-1.712992	2.812580	0.000000	-0.274017	0.000000	0.000003	-0.000000	0.000000	0.000000
34.510739	18.209477	17.034364	2.568016	-2.404213	2.639780	0.000000	-0.354498	0.000000	0.000003	-0.000001	0.000000	0.000000
34.956699	16.195674	19.044451	1.963822	-2.084291	2.498028	0.000000	-0.281578	0.000000	0.000003	-0.000000	0.000000	0.000000
35.397659	14.694091	20.706392	1.454354	-1.670284	2.389243	0.000000	-0.212292	0.000000	0.000003	-0.000000	0.000000	0.000000
35.838619	13.610932	21.968178	1.011331	-1.180280	2.310449	0.000000	-0.145424	0.000000	0.000002	-0.000000	0.000000	0.000000
36.279579	12.896709	22.772399	0.614513	-0.636574	2.260748	0.000000	-0.080213	0.000000	0.000002	-0.000000	0.000000	0.000000
36.721789	12.518101	23.082763	0.276362	-0.120564	2.239547	0.000000	-0.021407	0.000000	0.000002	-0.000000	0.000000	0.000000
37.019112	12.361365	23.158341	0.250797	-0.133632	2.233182	0.000000	-0.021407	0.000000	0.000002	-0.000000	0.000000	0.000000
37.352445	12.203721	23.252313	0.222135	-0.148283	2.226047	0.000000	-0.021407	0.000000	0.000002	-0.000000	0.000000	0.000000
37.685779	12.065185	23.356051	0.193473	-0.162933	2.218911	0.000000	-0.021407	0.000000	0.000002	-0.000000	0.000000	0.000000
38.020362	11.945345	23.470001	0.164704	-0.177639	2.211749	0.000000	-0.021407	0.000000	0.000002	-0.000000	0.000000	0.000000
38.317684	11.855006	23.579519	0.168210	-0.248530	2.205385	0.000000	-0.026815	0.000000	0.000002	-0.000000	0.000000	0.000000
38.758644	11.857867	23.537547	-0.174722	0.343351	2.207486	0.000000	0.036356	0.000000	0.000002	-0.000000	0.000000	0.000000
39.199604	12.165529	22.978504	-0.525635	0.919609	2.237508	0.000000	0.099941	0.000000	0.000002	-0.000000	0.000000	0.000000
39.640564	12.792049	21.927827	-0.900564	1.454027	2.295793	0.000000	0.164664	0.000000	0.000002	-0.000000	0.000000	0.000000
40.081524	13.766050	20.433321	-1.316636	1.922286	2.383004	0.000000	0.231262	0.000000	0.000002	0.000000	0.000000	0.000000
40.527484	15.149597	18.540417	-1.796686	2.304363	2.501606	0.000000	0.300900	0.000000	0.000002	0.000000	0.000000	0.000000
41.076544	16.915390	16.413359	-1.400305	1.592504	2.646291	0.000000	0.225351	0.000000	0.000002	-0.000000	0.000000	0.000000
41.625604	18.188685	15.001506	-0.905013	0.994075	2.748335	0.000000	0.145806	0.000000	0.000002	-0.000000	0.000000	0.000000
42.174664	18.879543	14.204294	-0.345795	0.466453	2.805928	0.000000	0.063674	0.000000	0.000002	-0.000000	0.000000	0.000000
42.723724	18.939166	13.964940	0.237847	-0.027946	2.818049	0.000000	-0.019588	0.000000	0.000002	-0.000000	0.000000	0.000000
43.022297	18.831560	13.966224	0.172039	-0.012840	2.814399	0.000000	-0.012225	0.000000	0.000002	-0.000000	0.000000	0.000000
43.502297	18.678999	13.995050	0.145796	-0.047214	2.808531	0.000000	-0.012225	0.000000	0.000002	-0.000000	0.000000	0.000000
43.982297	18.551632	14.056875	0.119552	-0.081589	2.802663	0.000000	-0.012225	0.000000	0.000001	-0.000000	0.000000	0.000000
44.462297	18.449459	14.151700	0.093309	-0.115963	2.796795	0.000000	-0.012225	0.000000	0.000001	-0.000000	0.000000	0.000000
44.942297	18.372479	14.279524	0.067065	-0.150337	2.790927	0.000000	-0.012225	0.000000	0.000001	-0.000000	0.000000	0.000000
45.423547	18.320819	14.440630	-0.050018	-0.113253	2.785061	0.000000	0.001574	0.000000	0.000001	-0.000000	0.000000	0.000000
45.720870	18.355399	14.514176	-0.114246	-0.096184	2.785529	0.000000	0.008852	0.000000	0.000001	-0.000000	0.000000	0.000000
46.269930	18.171780	14.900587	0.446691	-0.611738	2.767820	0.000000	-0.073265	0.000000	0.000001	-0.000000	0.000000	0.000000
46.818990	17.385943	15.873600	0.976076	-1.170866	2.705314	0.000000	-0.154083	0.000000	0.000001	-0.000000	0.000000	0.000000
47.368050	16.053397	17.502520	1.436517	-1.813391	2.599121	0.000000	-0.232167	0.000000	0.000001	-0.000000	0.000000	0.000000
47.917110	14.268265	19.903373	1.795488	-2.585080	2.451123	0.000000	-0.306134	0.000000	0.000001	-0.000000	0.000000	0.000000
48.363070	12.878961	22.038038	1.330859	-2.181471	2.329891	0.000000	-0.237840	0.000000	0.000001	-0.000000	0.000000	0.000000
48.804030	11.885429	23.747242	0.930800	-1.679876	2.239472	0.000000	-0.172652	0.000000	0.000000	-0.000000	0.000000	0.000000
49.244990	11.224703	24.978556	0.573266	-1.101848	2.177337	0.000000	-0.109431	0.000000	0.000000	-0.000000	0.000000	0.000000
49.685950	10.866595	25.675958	0.241924	-0.473687	2.142780	0.000000	-0.047456	0.000000	0.000000	-0.000000	0.000000	0.000000
50.128160	10.794875	25.807434	-0.052010	0.112689	2.135417	0.000000	0.008742	0.000000	0.000000	-0.000000	0.000000	0.000000
50.425482	10.834014	25.743893	-0.079628	0.101022	2.138016	0.000000	0.008742	0.000000	0.000000	-0.000000	0.000000	0.000000
50.758816	10.897420	25.680905	-0.110590	0.087942	2.140931	0.000000	0.008742	0.000000	-0.000000	-0.000000	0.000000	0.000000
51.092149	10.981468	25.626637	-0.141553	0.074862	2.143845	0.000000	0.008742	0.000000	-0.000000	-0.000000	0.000000	0.000000
51.426732	11.086363	25.581454	-0.082691	-0.145797	2.146748	0.000000	-0.008673	0.000000	-0.000000	-0.000000	0.000000	0.000000
51.724055	11.143564	25.671680	-0.082366	-0.220621	2.144170	0.000000	-0.013931	0.000000	-0.000000	-0.000000	0.000000	0.000000
52.165015	11.361669	25.580675	-0.414126	0.426217	2.151615	0.000000	0.047730	0.000000	-0.000000	-0.000000	0.000000	0.000000
52.605975	11.879567	24.925614	-0.764807	1.053662	2.186344	0.000000	0.109935	0.000000	-0.000001	-0.000000	0.000000	0.000000
53.046935	12.720917	23.736304	-1.150429	1.633167	2.248752	0.000000	0.173392	0.000000	-0.000001	-0.000000	0.000000	0.000000
53.487895	13.924159	22.066858	-1.588611	2.138364	2.339552	0.000000	0.238824	0.000000	-0.000001	-0.000000	0.000000	0.000000
53.933855	15.564887	19.968269	-2.103610	2.547601	2.461280	0.000000	0.307375	0.000000	-0.000001	-0.000000	0.000000	0.000000
54.482915	17.677222	17.606913	-1.720800	1.778509	2.609868	0.000000	0.233070	0.000000	-0.000001	-0.000000	0.000000	0.000000
55.031975	19.299548	16.016011	-1.216442	1.136096	2.716460	0.000000	0.154631	0.000000	-0.000001	-0.000000	0.000000	0.000000
55.581035	20.317272	15.082244	-0.626161	0.574605	2.779167	0.000000	0.073449	0.000000	-0.000001	-0.000000	0.000000	0.000000
56.130095	20.658507	14.739105	0.008350	0.054042	2.796877	0.000000	-0.009036	0.000000	-0.000001	-0.000000	0.000000	0.000000
56.428668	20.690078	14.689937	-0.060111	0.072122	2.796361	0.000000	-0.001728	0.000000	-0.000001	-0.000000	0.000000	0.000000
56.762001	20.735541	14.649459	-0.076280	0.049313	2.795785	0.000000	-0.001728	0.000000	-0.000002	-0.000000	0.000000	0.000000
57.095334	20.791784	14.624186	-0.092449	0.026504	2.795209	0.000000	-0.001728	0.000000	-0.000002	-0.000000	0.000000	0.000000
57.429918	20.859078	14.614111	-0.108678	0.003609	2.794631	0.000000	-0.001728	0.000000	-0.000002	-0.000000	0.000000	0.000000
57.727240	20.927991	14.618014	-0.177782	0.021459	2.794117	0.000000	0.005572	0.000000	-0.000002	-0.000000	0.000000	0.000000
58.276300	20.766122	14.875227	0.470848	-0.492685	2.774536	0.000000	-0.076793	0.000000	-0.000002	-0.000000	0.000000	0.000000
58.825360	19.906107	15.712874	1.086220	-1.041922	2.710040	0.000000	-0.157796	0.000000	-0.000002	-0.000000	0.000000	0.000000
59.374420	18.408693	17.190618	1.624868	-1.665372	2.601772	0.000000	-0.236000	0.000000	-0.000002	0.000000	0.000000	0.000000
59.923480	16.379650	19.413715	2.048742	-2.407443	2.451652	0.000000	-0.310018	0.000000	-0.000002	0.000000	0.000000	0.000000
60.369440	14.791442	21.389694	1.525193	-2.004699	2.328687	0.000000	-0.241733	0.000000	-0.000002	0.000000	0.000000	0.000000
60.810400	13.648959	22.946391	1.075537	-1.512113	2.236541	0.000000	-0.176598	0.000000	-0.000002	-0.000000	0.000000	0.000000
61.251360	12.879951	24.036553	0.675019	-0.950727	2.172647	0.000000	-0.113475	0.000000	-0.000002	-0.000000	0.000000	0.000000
61.692320	12.449286	24.610579	0.305341	-0.346084	2.136276	0.000000	-0.051644	0.000000	-0.000002	-0.000000	0.000000	0.000000
62.134530	12.337337	24.641817	-0.020233	0.213821	2.127020	0.000000	0.004382	0.000000	-0.000002	-0.000000	0.000000	0.000000
62.431853	12.356537	24.518420	-0.044343	0.201204	2.128323	0.000000	0.004382	0.000000	-0.000002	-0.000000	0.000000	0.000000
62.765186	12.395109	24.389000	-0.071372	0.187058	2.129784	0.000000	0.004382	0.000000	-0.000002	-0.000000	0.000000	0.000000
63.098520	12.451700	24.269009	-0.098401	0.172913	2.131245	0.000000	0.004382	0.000000	-0.000002	-0.000000	0.000000	0.000000
63.433103	12.526624	24.158052	-0.125532	0.158714	2.132712	0.000000	0.004382	0.000000	-0.000002	-0.000000	0.000000	0.000000
63.730426	12.608439	24.067425	-0.118721	0.087075	2.134015	0.000000	-0.000851	0.000000	-0.000002	-0.000000	0.000000	0.000000
64.171386	12.873647	23.725563	-0.484993	0.685243	2.147181	0.000000	0.060623	0.000000	-0.000002	-0.000000	0.000000	0.000000
64.612346	13.470390	22.867950	-0.873423	1.252234	2.187580	0.000000	0.122786	0.000000	-0.000002	-0.000000	0.000000	0.000000
65.053306	14.425932	21.533606	-1.301757	1.762249	2.255674	0.000000	0.186349	0.000000	-0.000002	-0.000000	0.000000	0.000000
65.494266	15.783928	19.783243	-1.789564	2.192082	2.352237	0.000000	0.252034	0.000000	-0.000003	-0.000000	0.000000	0.000000
65.940226	17.629592	17.671725	-2.363825	2.522935	2.479941	0.000000	0.320991	0.000000	-0.000003	-0.000000	0.000000	0.000000
66.489286	19.995367	15.309517	-1.919443	1.804735	2.635817	0.000000	0.245963	0.000000	-0.000003	-0.000000	0.000000	0.000000
67.038346	21.795368	13.661186	-1.339482	1.215082	2.749237	0.000000	0.166572	0.000000	-0.000003	-0.000000	0.000000	0.000000
67.587406	22.902450	12.609324	-0.664906	0.711977	2.818190	0.000000	0.084227	0.000000	-0.000003	-0.000000	0.000000	0.000000
68.136466	23.238415	12.079009	0.056636	0.259584	2.841454	0.000000	0.000388	0.000000	-0.000003	-0.000000	0.000000	0.000000
68.435038	23.244690	11.913158	-0.016932	0.264332	2.843787	0.000000	0.007812	0.000000	-0.000003	-0.000000	0.000000	0.000000
68.768372	23.260759	11.746915	-0.031276	0.234397	2.846391	0.000000	0.007812	0.000000	-0.000003	-0.000000	0.000000	0.000000
69.101705	23.286391	11.600629	-0.045620	0.204461	2.848995	0.000000	0.007812	0.000000	-0.000004	-0.000000	0.000000	0.000000
69.436288	23.321736	11.473864	-0.060019	0.174414	2.851609	0.000000	0.007812	0.000000	-0.000004	-0.000000	0.000000	0.000000
69.733611	23.361230	11.378089	-0.133854	0.177442	2.853931	0.000000	0.015269	0.000000	-0.000004	-0.000000	0.000000	0.000000
70.282671	23.107010	11.411029	0.594123	-0.237792	2.839128	0.000000	-0.069111	0.000000	-0.000004	0.000000	0.000000	0.000000
