#ParticleID	Turn	x[m]	xp	y[m]	yp	z[m]	dE[GeV]# s	beta_x	beta_y	alpha_x	alpha_y	D_x	D_y	D_px	D_py	orbit_x	orbit_px	orbit_y	orbit_py
0.300000	11.803339	25.059600	-0.010042	-0.026776	2.618301	0.000000	-0.000058	0.000000	-0.000003	0.000002	0.000000	0.000000
0.601250	11.817079	25.079357	-0.035567	-0.038806	2.618283	0.000000	-0.000058	0.000000	-0.000002	0.000002	0.000000	0.000000
0.898573	11.845719	25.105963	-0.031710	-0.112247	2.618265	0.000000	-0.006479	0.000000	-0.000001	0.000002	0.000000	0.000000
1.339533	12.025690	24.926440	-0.377973	0.517814	2.631701	0.000000	0.067482	0.000000	-0.000001	0.000002	0.000000	0.000000
1.780493	12.517470	24.199561	-0.741505	1.124315	2.677889	0.000000	0.142211	0.000000	0.000000	0.000002	0.000000	0.000000
2.221453	13.343526	22.958396	-1.138914	1.679661	2.757356	0.000000	0.218560	0.000000	0.000001	0.000002	0.000000	0.000000
2.662413	14.541598	21.259419	-1.588356	2.158583	2.871005	0.000000	0.297398	0.000000	0.000002	0.000002	0.000000	0.000000
3.108373	16.187139	19.155018	-2.114651	2.540425	3.021993	0.000000	0.380113	0.000000	0.000003	0.000002	0.000000	0.000000
3.657433	18.297315	16.791406	-1.705849	1.789820	3.205426	0.000000	0.287076	0.000000	0.000004	0.000002	0.000000	0.000000
4.206493	19.889352	15.177625	-1.176554	1.166699	3.336300	0.000000	0.188946	0.000000	0.000005	0.000002	0.000000	0.000000
4.755553	20.850797	14.198731	-0.564153	0.626680	3.412294	0.000000	0.087465	0.000000	0.000006	0.000002	0.000000	0.000000
5.304613	21.113737	13.784998	0.088097	0.131298	3.432061	0.000000	-0.015567	0.000000	0.000007	0.000001	0.000000	0.000000
5.603185	21.098298	13.691736	0.018777	0.145047	3.430090	0.000000	-0.006600	0.000000	0.000007	0.000001	0.000000	0.000000
5.936519	21.091048	13.603324	0.002972	0.120190	3.427889	0.000000	-0.006600	0.000000	0.000008	0.000001	0.000000	0.000000
6.269852	21.094335	13.531483	-0.012832	0.095332	3.425689	0.000000	-0.006600	0.000000	0.000008	0.000001	0.000000	0.000000
6.604435	21.108229	13.476039	-0.028696	0.070381	3.423480	0.000000	-0.006600	0.000000	0.000009	0.000001	0.000000	0.000000
6.901758	21.129485	13.440779	-0.097997	0.083324	3.421517	0.000000	0.002339	0.000000	0.000009	0.000001	0.000000	0.000000
7.450818	20.877025	13.610254	0.555078	-0.393809	3.394602	0.000000	-0.100236	0.000000	0.000010	0.000001	0.000000	0.000000
7.999878	19.924796	14.315915	1.168946	-0.898993	3.311772	0.000000	-0.201032	0.000000	0.000010	0.000001	0.000000	0.000000
8.548938	18.340058	15.608024	1.700244	-1.468210	3.174498	0.000000	-0.298263	0.000000	0.000011	0.000000	0.000000	0.000000
9.097998	16.234748	17.578617	2.111446	-2.142004	2.985214	0.000000	-0.390204	0.000000	0.000011	0.000000	0.000000	0.000000
9.543958	14.592276	19.334481	1.584651	-1.778620	2.829504	0.000000	-0.308504	0.000000	0.000011	0.000000	0.000000	0.000000
9.984918	13.397754	20.712950	1.134538	-1.335546	2.710710	0.000000	-0.230802	0.000000	0.000011	0.000001	0.000000	0.000000
10.425878	12.575925	21.672272	0.736258	-0.831706	2.625568	0.000000	-0.155729	0.000000	0.000012	0.000001	0.000000	0.000000
10.866838	12.089243	22.168800	0.371617	-0.290024	2.573108	0.000000	-0.082429	0.000000	0.000012	0.000001	0.000000	0.000000
11.309048	11.915340	22.179416	0.053064	0.210409	2.552713	0.000000	-0.016328	0.000000	0.000013	0.000002	0.000000	0.000000
11.606371	11.891225	22.058459	0.028041	0.196410	2.547858	0.000000	-0.016328	0.000000	0.000013	0.000002	0.000000	0.000000
12.086371	11.883696	21.880753	-0.012357	0.173810	2.540020	0.000000	-0.016328	0.000000	0.000014	0.000002	0.000000	0.000000
12.566371	11.914950	21.724743	-0.052754	0.151211	2.532182	0.000000	-0.016328	0.000000	0.000015	0.000002	0.000000	0.000000
13.046371	11.984984	21.590429	-0.093152	0.128611	2.524344	0.000000	-0.016328	0.000000	0.000015	0.000002	0.000000	0.000000
13.526371	12.093801	21.477810	-0.133549	0.106011	2.516505	0.000000	-0.016328	0.000000	0.000016	0.000002	0.000000	0.000000
14.007621	12.241834	21.386679	-0.174052	0.083352	2.508647	0.000000	-0.016328	0.000000	0.000017	0.000002	0.000000	0.000000
14.304943	12.352774	21.341276	-0.168788	0.017027	2.503792	0.000000	-0.022467	0.000000	0.000018	0.000002	0.000000	0.000000
14.745903	12.660104	21.092700	-0.530814	0.544544	2.509513	0.000000	0.048443	0.000000	0.000018	0.000002	0.000000	0.000000
15.186863	13.296160	20.388086	-0.917091	1.047284	2.546594	0.000000	0.119906	0.000000	0.000019	0.000002	0.000000	0.000000
15.627823	14.289999	19.259494	-1.345267	1.502374	2.615458	0.000000	0.192733	0.000000	0.000020	0.000003	0.000000	0.000000
16.068783	15.687029	17.758274	-1.834905	1.889106	2.716889	0.000000	0.267756	0.000000	0.000022	0.000004	0.000000	0.000000
16.514743	17.574738	15.931231	-2.413133	2.190628	2.853736	0.000000	0.346290	0.000000	0.000024	0.000004	0.000000	0.000000
17.063803	19.999357	13.891255	-1.976667	1.546699	3.020144	0.000000	0.258980	0.000000	0.000026	0.000003	0.000000	0.000000
17.612863	21.864712	12.494107	-1.400580	1.012938	3.137280	0.000000	0.167077	0.000000	0.000027	0.000002	0.000000	0.000000
18.161923	23.039044	11.640272	-0.725562	0.551326	3.203067	0.000000	0.072210	0.000000	0.000028	0.000002	0.000000	0.000000
18.710983	23.439404	11.268932	0.000706	0.128985	3.216338	0.000000	-0.023938	0.000000	0.000029	0.000001	0.000000	0.000000
19.009556	23.479361	11.182441	-0.073307	0.131261	3.211699	0.000000	-0.015537	0.000000	0.000029	0.000001	0.000000	0.000000
19.342889	23.532990	11.105041	-0.087580	0.100939	3.206520	0.000000	-0.015537	0.000000	0.000030	0.000001	0.000000	0.000000
19.676223	23.596134	11.047856	-0.101853	0.070616	3.201341	0.000000	-0.015537	0.000000	0.000030	0.000001	0.000000	0.000000
20.010806	23.669377	11.010649	-0.233451	0.094734	3.196162	0.000000	0.000299	0.000000	0.000030	0.000001	0.000000	0.000000
20.308129	23.812136	10.962416	-0.308898	0.096124	3.196251	0.000000	0.008648	0.000000	0.000030	0.000001	0.000000	0.000000
20.857189	23.740631	11.078736	0.438360	-0.309228	3.174787	0.000000	-0.086716	0.000000	0.000031	-0.000000	0.000000	0.000000
21.406249	22.860762	11.649592	1.154654	-0.736605	3.101309	0.000000	-0.180542	0.000000	0.000030	-0.000001	0.000000	0.000000
21.955309	21.234679	12.715644	1.789389	-1.216449	2.977119	0.000000	-0.271166	0.000000	0.000029	-0.000002	0.000000	0.000000
22.504369	18.977241	14.352824	2.297730	-1.782939	2.804421	0.000000	-0.356980	0.000000	0.000028	-0.000003	0.000000	0.000000
22.950329	17.198065	15.822831	1.705891	-1.499430	2.662513	0.000000	-0.279791	0.000000	0.000027	-0.000002	0.000000	0.000000
23.391289	15.922980	16.994945	1.196688	-1.148550	2.555455	0.000000	-0.206242	0.000000	0.000026	-0.000002	0.000000	0.000000
23.832249	15.071257	17.833298	0.742157	-0.745413	2.480280	0.000000	-0.135043	0.000000	0.000026	-0.000001	0.000000	0.000000
24.273209	14.603985	18.299744	0.321534	-0.308359	2.436133	0.000000	-0.065381	0.000000	0.000025	-0.000000	0.000000	0.000000
24.715418	14.499936	18.372818	-0.048937	0.097610	2.422507	0.000000	-0.002404	0.000000	0.000025	0.000000	0.000000	0.000000
25.012741	14.535147	18.319632	-0.069491	0.081273	2.421792	0.000000	-0.002404	0.000000	0.000026	0.000000	0.000000	0.000000
25.346075	14.589156	18.271555	-0.092535	0.062958	2.420991	0.000000	-0.002404	0.000000	0.000026	0.000000	0.000000	0.000000
25.679408	14.658527	18.235688	-0.115579	0.044642	2.420189	0.000000	-0.002404	0.000000	0.000026	0.000000	0.000000	0.000000
26.013991	14.743308	18.212336	-0.019101	-0.121490	2.419360	0.000000	-0.022031	0.000000	0.000026	0.000000	0.000000	0.000000
26.311314	14.760665	18.289504	-0.003087	-0.182896	2.412810	0.000000	-0.027947	0.000000	0.000026	0.000000	0.000000	0.000000
26.752274	14.945224	18.252484	-0.417041	0.266530	2.415592	0.000000	0.040580	0.000000	0.000026	0.000001	0.000000	0.000000
27.193234	15.501850	17.822960	-0.850049	0.703829	2.448665	0.000000	0.109569	0.000000	0.000027	0.000001	0.000000	0.000000
27.634194	16.455971	17.020474	-1.321894	1.109105	2.512405	0.000000	0.179806	0.000000	0.000028	0.000002	0.000000	0.000000
28.075154	17.851180	15.881540	-1.854132	1.463917	2.607538	0.000000	0.252091	0.000000	0.000029	0.000003	0.000000	0.000000
28.521114	19.775454	14.440818	-2.476054	1.753034	2.736751	0.000000	0.327690	0.000000	0.000030	0.000004	0.000000	0.000000
29.070174	22.221204	12.835673	-1.952005	1.187663	2.894014	0.000000	0.244319	0.000000	0.000032	0.000003	0.000000	0.000000
29.619234	24.011902	11.801556	-1.290075	0.706886	3.004243	0.000000	0.156614	0.000000	0.000033	0.000002	0.000000	0.000000
30.168294	25.021062	11.264808	-0.537021	0.276459	3.065483	0.000000	0.066131	0.000000	0.000034	0.000001	0.000000	0.000000
30.717354	25.177401	11.187199	0.253966	-0.134276	3.076647	0.000000	-0.025525	0.000000	0.000034	-0.000001	0.000000	0.000000
31.015927	25.068684	11.257988	0.175922	-0.132037	3.071426	0.000000	-0.017488	0.000000	0.000033	-0.000000	0.000000	0.000000
31.349260	24.955972	11.356055	0.162214	-0.162162	3.065596	0.000000	-0.017488	0.000000	0.000033	-0.000000	0.000000	0.000000
31.682593	24.852399	11.474204	0.148505	-0.192287	3.059767	0.000000	-0.017488	0.000000	0.000033	-0.000000	0.000000	0.000000
32.017177	24.757627	11.612993	0.134746	-0.222525	3.053916	0.000000	-0.017488	0.000000	0.000033	-0.000000	0.000000	0.000000
32.314499	24.681137	11.753306	0.058049	-0.218694	3.048716	0.000000	-0.009525	0.000000	0.000033	-0.000000	0.000000	0.000000
32.863559	24.194489	12.232626	0.823032	-0.659442	3.018613	0.000000	-0.099969	0.000000	0.000032	-0.000001	0.000000	0.000000
33.412619	22.894904	13.218738	1.529881	-1.147159	2.939266	0.000000	-0.188640	0.000000	0.000031	-0.000002	0.000000	0.000000
33.961679	20.874179	14.781880	2.128666	-1.716587	2.812081	0.000000	-0.273965	0.000000	0.000030	-0.000003	0.000000	0.000000
34.510739	18.275047	17.033392	2.577093	-2.408283	2.639316	0.000000	-0.354430	0.000000	0.000028	-0.000004	0.000000	0.000000
34.956699	16.254056	19.047325	1.970918	-2.088810	2.497593	0.000000	-0.281521	0.000000	0.000026	-0.000004	0.000000	0.000000
35.397659	14.746959	20.713373	1.459809	-1.675041	2.388832	0.000000	-0.212246	0.000000	0.000024	-0.000003	0.000000	0.000000
35.838619	13.659618	21.979381	1.015394	-1.185059	2.310057	0.000000	-0.145389	0.000000	0.000023	-0.000002	0.000000	0.000000
36.279579	12.942354	22.787746	0.617371	-0.641157	2.260370	0.000000	-0.080187	0.000000	0.000022	-0.000002	0.000000	0.000000
36.721789	12.561703	23.101999	0.278246	-0.124779	2.239179	0.000000	-0.021389	0.000000	0.000021	-0.000001	0.000000	0.000000
37.019112	12.403827	23.180085	0.252745	-0.137849	2.232820	0.000000	-0.021389	0.000000	0.000021	-0.000001	0.000000	0.000000
37.352445	12.244861	23.276869	0.224154	-0.152503	2.225691	0.000000	-0.021389	0.000000	0.000021	-0.000001	0.000000	0.000000
37.685779	12.104955	23.383422	0.195564	-0.167156	2.218562	0.000000	-0.021389	0.000000	0.000020	-0.000001	0.000000	0.000000
38.020362	11.983691	23.500198	0.166867	-0.181865	2.211406	0.000000	-0.021389	0.000000	0.000020	-0.000001	0.000000	0.000000
38.317684	11.892047	23.612229	0.170523	-0.252829	2.205047	0.000000	-0.026795	0.000000	0.000019	-0.000001	0.000000	0.000000
38.758644	11.893234	23.573653	-0.173228	0.339978	2.207156	0.000000	0.036367	0.000000	0.000019	-0.000001	0.000000	0.000000
39.199604	12.199914	23.017119	-0.524893	0.917315	2.237181	0.000000	0.099943	0.000000	0.000018	-0.000000	0.000000	0.000000
39.640564	12.826097	21.967949	-0.900539	1.452916	2.295465	0.000000	0.164658	0.000000	0.000018	0.000000	0.000000	0.000000
40.081524	13.800391	20.473880	-1.317327	1.922410	2.382671	0.000000	0.231248	0.000000	0.000018	0.000001	0.000000	0.000000
40.527484	15.184888	18.580309	-1.798130	2.305724	2.501265	0.000000	0.300877	0.000000	0.000019	0.000001	0.000000	0.000000
41.076544	16.951532	16.452329	-1.400402	1.592830	2.645939	0.000000	0.225339	0.000000	0.000019	0.000000	0.000000	0.000000
41.625604	18.224188	15.040672	-0.903758	0.993390	2.747980	0.000000	0.145805	0.000000	0.000019	-0.000000	0.000000	0.000000
42.174664	18.912962	14.244786	-0.343276	0.464707	2.805576	0.000000	0.063685	0.000000	0.000019	-0.000001	0.000000	0.000000
42.723724	18.969201	14.007984	0.241453	-0.030875	2.817707	0.000000	-0.019566	0.000000	0.000018	-0.000001	0.000000	0.000000
43.022297	18.859482	14.010933	0.175579	-0.015595	2.814063	0.000000	-0.012205	0.000000	0.000018	-0.000001	0.000000	0.000000
43.502297	18.703520	14.042353	0.149343	-0.049863	2.808206	0.000000	-0.012205	0.000000	0.000017	-0.000001	0.000000	0.000000
43.982297	18.572744	14.106669	0.123107	-0.084130	2.802348	0.000000	-0.012205	0.000000	0.000017	-0.000001	0.000000	0.000000
44.462297	18.467155	14.203882	0.096871	-0.118397	2.796490	0.000000	-0.012205	0.000000	0.000016	-0.000001	0.000000	0.000000
44.942297	18.386753	14.333992	0.070635	-0.152665	2.790633	0.000000	-0.012205	0.000000	0.000015	-0.000001	0.000000	0.000000
45.423547	18.331653	14.497286	-0.046495	-0.115193	2.784777	0.000000	0.001593	0.000000	0.000014	-0.000001	0.000000	0.000000
45.720870	18.364134	14.571964	-0.110725	-0.097905	2.785251	0.000000	0.008869	0.000000	0.000014	-0.000001	0.000000	0.000000
46.269930	18.176519	14.961239	0.450405	-0.615265	2.767555	0.000000	-0.073239	0.000000	0.000013	-0.000002	0.000000	0.000000
46.818990	17.386618	15.939225	0.979720	-1.176449	2.705066	0.000000	-0.154048	0.000000	0.000012	-0.000002	0.000000	0.000000
47.368050	16.050226	17.575582	1.439833	-1.821430	2.598895	0.000000	-0.232125	0.000000	0.000011	-0.000003	0.000000	0.000000
47.917110	14.261739	19.986863	1.798244	-2.596147	2.450924	0.000000	-0.306085	0.000000	0.000009	-0.000003	0.000000	0.000000
48.363070	12.870048	22.130608	1.333476	-2.190678	2.329713	0.000000	-0.237796	0.000000	0.000008	-0.000003	0.000000	0.000000
48.804030	11.874223	23.846959	0.933402	-1.686813	2.239313	0.000000	-0.172613	0.000000	0.000007	-0.000002	0.000000	0.000000
49.244990	11.211165	25.083270	0.575971	-1.106199	2.177196	0.000000	-0.109395	0.000000	0.000006	-0.000002	0.000000	0.000000
49.685950	10.850580	25.783291	0.244856	-0.475254	2.142655	0.000000	-0.047423	0.000000	0.000005	-0.000002	0.000000	0.000000
50.128160	10.776117	25.914888	-0.048764	0.113718	2.135306	0.000000	0.008772	0.000000	0.000004	-0.000002	0.000000	0.000000
50.425482	10.813338	25.850721	-0.076421	0.102096	2.137915	0.000000	0.008772	0.000000	0.000004	-0.000002	0.000000	0.000000
50.758816	10.874620	25.787000	-0.107427	0.089068	2.140840	0.000000	0.008772	0.000000	0.000003	-0.000002	0.000000	0.000000
51.092149	10.956574	25.731964	-0.138433	0.076039	2.143765	0.000000	0.008772	0.000000	0.000002	-0.000002	0.000000	0.000000
51.426732	11.059397	25.685979	-0.079834	-0.145416	2.146679	0.000000	-0.008643	0.000000	0.000002	-0.000002	0.000000	0.000000
51.724055	11.114914	25.775964	-0.079633	-0.220447	2.144109	0.000000	-0.013901	0.000000	0.000001	-0.000002	0.000000	0.000000
52.165015	11.330302	25.683587	-0.410672	0.429140	2.151568	0.000000	0.047759	0.000000	0.000000	-0.000002	0.000000	0.000000
52.605975	11.844778	25.024780	-0.760473	1.059202	2.186311	0.000000	0.109963	0.000000	-0.000001	-0.000002	0.000000	0.000000
53.046935	12.681847	23.829519	-1.145018	1.641071	2.248733	0.000000	0.173420	0.000000	-0.000002	-0.000002	0.000000	0.000000
53.487895	13.879753	22.152187	-1.581875	2.148273	2.339545	0.000000	0.238852	0.000000	-0.000003	-0.000002	0.000000	0.000000
53.933855	15.513763	20.044025	-2.095228	2.559069	2.461286	0.000000	0.307403	0.000000	-0.000004	-0.000002	0.000000	0.000000
54.482915	17.617569	17.671733	-1.713741	1.787078	2.609890	0.000000	0.233097	0.000000	-0.000005	-0.000002	0.000000	0.000000
55.031975	19.233102	16.072725	-1.211205	1.142378	2.716497	0.000000	0.154657	0.000000	-0.000006	-0.000002	0.000000	0.000000
55.581035	20.246251	15.133106	-0.623115	0.579046	2.779219	0.000000	0.073473	0.000000	-0.000007	-0.000002	0.000000	0.000000
56.130095	20.585450	14.785951	0.008989	0.056958	2.796942	0.000000	-0.009014	0.000000	-0.000008	-0.000001	0.000000	0.000000
56.428668	20.616542	14.734952	-0.059334	0.075216	2.796434	0.000000	-0.001705	0.000000	-0.000008	-0.000001	0.000000	0.000000
56.762001	20.661507	14.692391	-0.075559	0.052466	2.795866	0.000000	-0.001705	0.000000	-0.000009	-0.000001	0.000000	0.000000
57.095334	20.717288	14.664997	-0.091784	0.029716	2.795298	0.000000	-0.001705	0.000000	-0.000009	-0.000001	0.000000	0.000000
57.429918	20.784156	14.652752	-0.108070	0.006881	2.794728	0.000000	-0.001705	0.000000	-0.000010	-0.000001	0.000000	0.000000
57.727240	20.852723	14.654694	-0.177032	0.024882	2.794221	0.000000	0.005596	0.000000	-0.000010	-0.000001	0.000000	0.000000
58.276300	20.691417	14.908708	0.469076	-0.490247	2.774653	0.000000	-0.076772	0.000000	-0.000011	-0.000001	0.000000	0.000000
58.825360	19.834684	15.744136	1.082051	-1.040296	2.710167	0.000000	-0.157779	0.000000	-0.000011	-0.000001	0.000000	0.000000
59.374420	18.343037	17.220484	1.618595	-1.664442	2.601907	0.000000	-0.235988	0.000000	-0.000012	-0.000000	0.000000	0.000000
59.923480	16.321840	19.442909	2.040810	-2.407142	2.451794	0.000000	-0.310010	0.000000	-0.000012	-0.000000	0.000000	0.000000
60.369440	14.739920	21.418166	1.518977	-2.003385	2.328833	0.000000	-0.241722	0.000000	-0.000012	-0.000000	0.000000	0.000000
60.810400	13.602275	22.973282	1.070740	-1.509854	2.236693	0.000000	-0.176583	0.000000	-0.000012	-0.000001	0.000000	0.000000
61.251360	12.836955	24.061071	0.671421	-0.947625	2.172807	0.000000	-0.113456	0.000000	-0.000012	-0.000001	0.000000	0.000000
61.692320	12.408995	24.632040	0.302779	-0.342280	2.136446	0.000000	-0.051621	0.000000	-0.000013	-0.000001	0.000000	0.000000
62.134530	12.298898	24.659665	-0.021968	0.218104	2.127202	0.000000	0.004409	0.000000	-0.000014	-0.000002	0.000000	0.000000
62.431853	12.319152	24.533726	-0.046155	0.205473	2.128513	0.000000	0.004409	0.000000	-0.000014	-0.000002	0.000000	0.000000
62.765186	12.358961	24.401464	-0.073271	0.191313	2.129983	0.000000	0.004409	0.000000	-0.000015	-0.000002	0.000000	0.000000
63.098520	12.416846	24.278642	-0.100386	0.177153	2.131454	0.000000	0.004409	0.000000	-0.000015	-0.000002	0.000000	0.000000
63.433103	12.493128	24.164853	-0.127604	0.162939	2.132929	0.000000	0.004409	0.000000	-0.000016	-0.000002	0.000000	0.000000
63.730426	12.576198	24.071717	-0.120945	0.091268	2.134241	0.000000	-0.000825	0.000000	-0.000016	-0.000002	0.000000	0.000000
64.171386	12.843062	23.726141	-0.486540	0.689441	2.147420	0.000000	0.060654	0.000000	-0.000017	-0.000002	0.000000	0.000000
64.612346	13.440897	22.864894	-0.874363	1.256245	2.187836	0.000000	0.122824	0.000000	-0.000018	-0.000002	0.000000	0.000000
65.053306	14.397017	21.527163	-1.302133	1.765891	2.255949	0.000000	0.186394	0.000000	-0.000019	-0.000003	0.000000	0.000000
65.494266	15.755103	19.773814	-1.789394	2.195190	2.352534	0.000000	0.252086	0.000000	-0.000021	-0.000003	0.000000	0.000000
65.940226	17.600366	17.659819	-2.363098	2.525360	2.480265	0.000000	0.321051	0.000000	-0.000022	-0.000004	0.000000	0.000000
66.489286	19.965994	15.295003	-1.919907	1.807093	2.636172	0.000000	0.246012	0.000000	-0.000024	-0.000003	0.000000	0.000000
67.038346	21.767146	13.644042	-1.341104	1.217542	2.749617	0.000000	0.166609	0.000000	-0.000026	-0.000002	0.000000	0.000000
67.587406	22.876596	12.589344	-0.667572	0.714714	2.818589	0.000000	0.084252	0.000000	-0.000027	-0.000002	0.000000	0.000000
68.136466	23.215979	12.055784	0.053114	0.262793	2.841863	0.000000	0.000399	0.000000	-0.000027	-0.000001	0.000000	0.000000
68.435038	23.224333	11.888079	-0.020421	0.267389	2.844200	0.000000	0.007826	0.000000	-0.000028	-0.000001	0.000000	0.000000
68.768372	23.242733	11.719835	-0.034779	0.237345	2.846809	0.000000	0.007826	0.000000	-0.000028	-0.000001	0.000000	0.000000
69.101705	23.270705	11.571620	-0.049138	0.207301	2.849418	0.000000	0.007826	0.000000	-0.000028	-0.000001	0.000000	0.000000
69.436288	23.308409	11.442991	-0.063551	0.177144	2.852037	0.000000	0.007826	0.000000	-0.000028	-0.000001	0.000000	0.000000
69.733611	23.350007	11.345621	-0.137382	0.179997	2.854364	0.000000	0.015286	0.000000	-0.000029	-0.000001	0.000000	0.000000
70.282671	23.099833	11.375249	0.590326	-0.234276	2.839567	0.000000	-0.069108	0.000000	-0.000029	0.000000	0.000000	0.000000
