#ParticleID	Turn	x[m]	xp	y[m]	yp	z[m]	dE[GeV]# s	beta_x	beta_y	alpha_x	alpha_y	D_x	D_y	D_px	D_py	orbit_x	orbit_px	orbit_y	orbit_py
0.300000	11.812131	25.025861	-0.010821	-0.027213	2.618064	0.000000	0.000032	0.000000	-0.000001	0.000001	0.000000	0.000000
0.601250	11.826335	25.045886	-0.036328	-0.039260	2.618073	0.000000	0.000032	0.000000	-0.000000	0.000001	0.000000	0.000000
0.898573	11.855421	25.072767	-0.032428	-0.112635	2.618082	0.000000	-0.006389	0.000000	0.000000	0.000001	0.000000	0.000000
1.339533	12.036129	24.893972	-0.378931	0.516557	2.631558	0.000000	0.067568	0.000000	0.000001	0.000001	0.000000	0.000000
1.780493	12.528875	24.168565	-0.742746	1.122246	2.677784	0.000000	0.142294	0.000000	0.000001	0.000001	0.000000	0.000000
2.221453	13.356171	22.929550	-1.140496	1.676874	2.757286	0.000000	0.218641	0.000000	0.000002	0.000001	0.000000	0.000000
2.662413	14.555814	21.233302	-1.590351	2.155205	2.870971	0.000000	0.297478	0.000000	0.000002	0.000001	0.000000	0.000000
3.108373	16.203353	19.132122	-2.117153	2.536609	3.021995	0.000000	0.380192	0.000000	0.000003	0.000001	0.000000	0.000000
3.657433	18.316052	16.772176	-1.707915	1.786919	3.205471	0.000000	0.287154	0.000000	0.000004	0.000001	0.000000	0.000000
4.206493	19.910050	15.161176	-1.178039	1.164506	3.336387	0.000000	0.189022	0.000000	0.000004	0.000001	0.000000	0.000000
4.755553	20.872755	14.184374	-0.564951	0.625039	3.412423	0.000000	0.087538	0.000000	0.000005	0.000001	0.000000	0.000000
5.304613	21.136167	13.772195	0.088042	0.130092	3.432228	0.000000	-0.015499	0.000000	0.000005	0.000001	0.000000	0.000000
5.603185	21.120792	13.679676	0.018678	0.143797	3.430278	0.000000	-0.006532	0.000000	0.000006	0.000001	0.000000	0.000000
5.936519	21.113602	13.592101	0.002890	0.118926	3.428101	0.000000	-0.006532	0.000000	0.000006	0.000001	0.000000	0.000000
6.269852	21.116938	13.521107	-0.012898	0.094055	3.425923	0.000000	-0.006532	0.000000	0.000006	0.000001	0.000000	0.000000
6.604435	21.130871	13.466521	-0.028745	0.069091	3.423737	0.000000	-0.006532	0.000000	0.000007	0.000001	0.000000	0.000000
6.901758	21.152151	13.432032	-0.098090	0.082001	3.421795	0.000000	0.002408	0.000000	0.000007	0.000001	0.000000	0.000000
7.450818	20.899378	13.602832	0.555740	-0.394913	3.394915	0.000000	-0.100176	0.000000	0.000007	0.000001	0.000000	0.000000
7.999878	19.946026	14.309620	1.170316	-0.899955	3.312115	0.000000	-0.200983	0.000000	0.000008	0.000000	0.000000	0.000000
8.548938	18.359436	15.602740	1.702226	-1.469099	3.174865	0.000000	-0.298226	0.000000	0.000008	0.000000	0.000000	0.000000
9.097998	16.251677	17.574297	2.113900	-2.142883	2.985599	0.000000	-0.390179	0.000000	0.000008	-0.000000	0.000000	0.000000
9.543958	14.607253	19.331047	1.586590	-1.779720	2.829902	0.000000	-0.308469	0.000000	0.000008	0.000000	0.000000	0.000000
9.984918	13.411214	20.710564	1.136054	-1.336815	2.711127	0.000000	-0.230756	0.000000	0.000008	0.000000	0.000000	0.000000
10.425878	12.588208	21.671058	0.737421	-0.833086	2.626008	0.000000	-0.155672	0.000000	0.000008	0.000001	0.000000	0.000000
10.866838	12.100636	22.168829	0.372479	-0.291452	2.573576	0.000000	-0.082361	0.000000	0.000008	0.000001	0.000000	0.000000
11.309048	11.926087	22.180704	0.053694	0.208993	2.553213	0.000000	-0.016248	0.000000	0.000009	0.000001	0.000000	0.000000
11.606371	11.901592	22.060587	0.028692	0.195003	2.548382	0.000000	-0.016248	0.000000	0.000009	0.000001	0.000000	0.000000
12.086371	11.893423	21.884224	-0.011672	0.172418	2.540583	0.000000	-0.016248	0.000000	0.000010	0.000001	0.000000	0.000000
12.566371	11.924003	21.729544	-0.052036	0.149832	2.532783	0.000000	-0.016248	0.000000	0.000010	0.000001	0.000000	0.000000
13.046371	11.993333	21.596547	-0.092400	0.127246	2.524983	0.000000	-0.016248	0.000000	0.000010	0.000001	0.000000	0.000000
13.526371	12.101412	21.485231	-0.132764	0.104661	2.517184	0.000000	-0.016248	0.000000	0.000011	0.000001	0.000000	0.000000
14.007621	12.248673	21.395393	-0.173233	0.082016	2.509364	0.000000	-0.016248	0.000000	0.000011	0.000001	0.000000	0.000000
14.304943	12.359119	21.350782	-0.167931	0.015674	2.504533	0.000000	-0.022389	0.000000	0.000012	0.000001	0.000000	0.000000
14.745903	12.665748	21.103277	-0.530072	0.543475	2.510293	0.000000	0.048541	0.000000	0.000012	0.000001	0.000000	0.000000
15.186863	13.301188	20.399462	-0.916432	1.046549	2.547422	0.000000	0.120023	0.000000	0.000013	0.000002	0.000000	0.000000
15.627823	14.294471	19.271358	-1.344660	1.502006	2.616343	0.000000	0.192873	0.000000	0.000014	0.000002	0.000000	0.000000
16.068783	15.690978	17.770293	-1.834322	1.889123	2.717841	0.000000	0.267919	0.000000	0.000014	0.000002	0.000000	0.000000
16.514743	17.578167	15.943063	-2.412547	2.191030	2.854767	0.000000	0.346480	0.000000	0.000016	0.000003	0.000000	0.000000
17.063803	20.002018	13.902803	-1.975864	1.546818	3.021270	0.000000	0.259135	0.000000	0.000017	0.000002	0.000000	0.000000
17.612863	21.866396	12.505676	-1.399616	1.012782	3.138481	0.000000	0.167193	0.000000	0.000018	0.000002	0.000000	0.000000
18.161923	23.039612	11.652166	-0.724506	0.550885	3.204322	0.000000	0.072286	0.000000	0.000019	0.000001	0.000000	0.000000
18.710983	23.438796	11.281481	0.001780	0.128227	3.217624	0.000000	-0.023903	0.000000	0.000019	0.000000	0.000000	0.000000
19.009556	23.478114	11.195410	-0.072235	0.130574	3.212997	0.000000	-0.015497	0.000000	0.000019	0.000000	0.000000	0.000000
19.342889	23.531028	11.118455	-0.086507	0.100293	3.207831	0.000000	-0.015497	0.000000	0.000019	0.000000	0.000000	0.000000
19.676223	23.593457	11.061687	-0.100779	0.070011	3.202666	0.000000	-0.015497	0.000000	0.000019	0.000000	0.000000	0.000000
20.010806	23.665981	11.024871	-0.232358	0.094240	3.197500	0.000000	0.000345	0.000000	0.000019	0.000001	0.000000	0.000000
20.308129	23.808088	10.976922	-0.307796	0.095708	3.197603	0.000000	0.008699	0.000000	0.000020	0.000001	0.000000	0.000000
20.857189	23.735453	11.093923	0.439304	-0.310060	3.176155	0.000000	-0.086709	0.000000	0.000020	-0.000000	0.000000	0.000000
21.406249	22.854664	11.665947	1.155374	-0.737913	3.102668	0.000000	-0.180580	0.000000	0.000019	-0.000001	0.000000	0.000000
21.955309	21.227938	12.733738	1.789834	-1.218326	2.978446	0.000000	-0.271247	0.000000	0.000019	-0.000001	0.000000	0.000000
22.504369	18.970177	14.373351	2.297869	-1.785518	2.805691	0.000000	-0.357103	0.000000	0.000018	-0.000002	0.000000	0.000000
22.950329	17.190825	15.845449	1.706149	-1.501519	2.663734	0.000000	-0.279881	0.000000	0.000017	-0.000001	0.000000	0.000000
23.391289	15.915458	17.019154	1.197074	-1.150056	2.556643	0.000000	-0.206302	0.000000	0.000017	-0.000001	0.000000	0.000000
23.832249	15.063332	17.858550	0.742690	-0.746266	2.481449	0.000000	-0.135072	0.000000	0.000016	-0.000001	0.000000	0.000000
24.273209	14.595517	18.325445	0.322237	-0.308521	2.437295	0.000000	-0.065381	0.000000	0.000016	-0.000000	0.000000	0.000000
24.715418	14.490758	18.398352	-0.048050	0.098080	2.423676	0.000000	-0.002377	0.000000	0.000016	0.000000	0.000000	0.000000
25.012741	14.525445	18.344880	-0.068615	0.081765	2.422969	0.000000	-0.002377	0.000000	0.000016	0.000000	0.000000	0.000000
25.346075	14.578873	18.296467	-0.091671	0.063473	2.422177	0.000000	-0.002377	0.000000	0.000016	0.000000	0.000000	0.000000
25.679408	14.647673	18.260250	-0.114728	0.045181	2.421385	0.000000	-0.002377	0.000000	0.000016	0.000000	0.000000	0.000000
26.013991	14.731889	18.236529	-0.018356	-0.121123	2.420565	0.000000	-0.022014	0.000000	0.000016	0.000000	0.000000	0.000000
26.311314	14.748807	18.313473	-0.002382	-0.182569	2.414020	0.000000	-0.027933	0.000000	0.000016	0.000000	0.000000	0.000000
26.752274	14.932615	18.275878	-0.416036	0.267501	2.416816	0.000000	0.040625	0.000000	0.000017	0.000000	0.000000	0.000000
27.193234	15.488205	17.845229	-0.848698	0.705400	2.449916	0.000000	0.109646	0.000000	0.000017	0.000001	0.000000	0.000000
27.634194	16.440959	17.041120	-1.320134	1.111203	2.513697	0.000000	0.179916	0.000000	0.000017	0.000001	0.000000	0.000000
28.075154	17.834407	15.900137	-1.851884	1.466448	2.608887	0.000000	0.252235	0.000000	0.000018	0.000002	0.000000	0.000000
28.521114	19.756418	14.457006	-2.473209	1.755882	2.738172	0.000000	0.327870	0.000000	0.000019	0.000002	0.000000	0.000000
29.070174	22.199306	12.849098	-1.949671	1.189876	2.895522	0.000000	0.244451	0.000000	0.000020	0.000002	0.000000	0.000000
29.619234	23.987799	11.812826	-1.288417	0.708622	3.005811	0.000000	0.156697	0.000000	0.000021	0.000001	0.000000	0.000000
30.168294	24.995565	11.274377	-0.536156	0.277841	3.067082	0.000000	0.066162	0.000000	0.000021	0.000000	0.000000	0.000000
30.717354	25.151422	11.195398	0.253976	-0.133149	3.078249	0.000000	-0.025545	0.000000	0.000021	-0.000000	0.000000	0.000000
31.015927	25.042666	11.265492	0.175980	-0.130860	3.073023	0.000000	-0.017504	0.000000	0.000021	-0.000000	0.000000	0.000000
31.349260	24.929920	11.362764	0.162257	-0.160956	3.067189	0.000000	-0.017504	0.000000	0.000021	-0.000000	0.000000	0.000000
31.682593	24.826323	11.480100	0.148534	-0.191051	3.061354	0.000000	-0.017504	0.000000	0.000021	-0.000000	0.000000	0.000000
32.017177	24.731538	11.618052	0.134760	-0.221260	3.055498	0.000000	-0.017504	0.000000	0.000020	-0.000000	0.000000	0.000000
32.314499	24.655042	11.757604	0.058112	-0.217389	3.050294	0.000000	-0.009535	0.000000	0.000020	-0.000000	0.000000	0.000000
32.863559	24.168801	12.235526	0.822235	-0.658185	3.020171	0.000000	-0.100030	0.000000	0.000020	-0.000001	0.000000	0.000000
33.412619	22.870541	13.220243	1.528279	-1.145862	2.940776	0.000000	-0.188751	0.000000	0.000019	-0.000002	0.000000	0.000000
33.961679	20.851967	14.781896	2.126374	-1.715156	2.813517	0.000000	-0.274123	0.000000	0.000018	-0.000002	0.000000	0.000000
34.510739	18.255660	17.031717	2.574272	-2.406617	2.640651	0.000000	-0.354634	0.000000	0.000017	-0.000003	0.000000	0.000000
34.956699	16.236910	19.044109	1.968697	-2.087035	2.498844	0.000000	-0.281691	0.000000	0.000016	-0.000002	0.000000	0.000000
35.397659	14.731548	20.708574	1.458082	-1.673240	2.390015	0.000000	-0.212385	0.000000	0.000015	-0.000002	0.000000	0.000000
35.838619	13.645542	21.973011	1.014082	-1.183313	2.311185	0.000000	-0.145497	0.000000	0.000014	-0.000002	0.000000	0.000000
36.279579	12.929276	22.779890	0.616413	-0.639546	2.261456	0.000000	-0.080267	0.000000	0.000013	-0.000001	0.000000	0.000000
36.721789	12.549331	23.092806	0.277571	-0.123358	2.240236	0.000000	-0.021444	0.000000	0.000013	-0.000001	0.000000	0.000000
37.019112	12.391862	23.170047	0.252054	-0.136429	2.233860	0.000000	-0.021444	0.000000	0.000013	-0.000001	0.000000	0.000000
37.352445	12.233362	23.265885	0.223445	-0.151084	2.226712	0.000000	-0.021444	0.000000	0.000012	-0.000001	0.000000	0.000000
37.685779	12.093935	23.371492	0.194837	-0.165738	2.219564	0.000000	-0.021444	0.000000	0.000012	-0.000001	0.000000	0.000000
38.020362	11.973164	23.487319	0.166121	-0.180447	2.212390	0.000000	-0.021444	0.000000	0.000012	-0.000001	0.000000	0.000000
38.317684	11.881968	23.598507	0.169739	-0.251382	2.206014	0.000000	-0.026854	0.000000	0.000012	-0.000001	0.000000	0.000000
38.758644	11.883748	23.558821	-0.173791	0.341041	2.208102	0.000000	0.036333	0.000000	0.000011	-0.000001	0.000000	0.000000
39.199604	12.190836	23.001537	-0.525260	0.917947	2.238118	0.000000	0.099934	0.000000	0.000011	-0.000000	0.000000	0.000000
39.640564	12.817263	21.952012	-0.900727	1.453087	2.296403	0.000000	0.164673	0.000000	0.000011	-0.000000	0.000000	0.000000
40.081524	13.791647	20.457999	-1.317345	1.922113	2.383621	0.000000	0.231287	0.000000	0.000011	0.000000	0.000000	0.000000
40.527484	15.176083	18.564900	-1.797977	2.304968	2.502238	0.000000	0.300941	0.000000	0.000011	0.000000	0.000000	0.000000
41.076544	16.942755	16.437515	-1.400605	1.592498	2.646939	0.000000	0.225371	0.000000	0.000011	0.000000	0.000000	0.000000
41.625604	18.215822	15.026002	-0.904300	0.993458	2.748989	0.000000	0.145805	0.000000	0.000011	-0.000000	0.000000	0.000000
42.174664	18.905362	14.229822	-0.344121	0.465179	2.806576	0.000000	0.063652	0.000000	0.000011	-0.000001	0.000000	0.000000
42.723724	18.962669	13.992266	0.240365	-0.029965	2.818679	0.000000	-0.019631	0.000000	0.000011	-0.000001	0.000000	0.000000
43.022297	18.853592	13.994702	0.174505	-0.014749	2.815017	0.000000	-0.012267	0.000000	0.000010	-0.000001	0.000000	0.000000
43.502297	18.698660	14.025327	0.148270	-0.049055	2.809129	0.000000	-0.012267	0.000000	0.000010	-0.000001	0.000000	0.000000
43.982297	18.568913	14.088887	0.122036	-0.083361	2.803242	0.000000	-0.012267	0.000000	0.000009	-0.000001	0.000000	0.000000
44.462297	18.464351	14.185380	0.095801	-0.117667	2.797354	0.000000	-0.012267	0.000000	0.000009	-0.000001	0.000000	0.000000
44.942297	18.384975	14.314808	0.069566	-0.151973	2.791467	0.000000	-0.012267	0.000000	0.000009	-0.000001	0.000000	0.000000
45.423547	18.330903	14.477455	-0.047558	-0.114638	2.785581	0.000000	0.001535	0.000000	0.000008	-0.000001	0.000000	0.000000
45.720870	18.364016	14.551811	-0.111793	-0.097427	2.786038	0.000000	0.008814	0.000000	0.000008	-0.000001	0.000000	0.000000
46.269930	18.177565	14.940224	0.449364	-0.614163	2.768303	0.000000	-0.073319	0.000000	0.000007	-0.000001	0.000000	0.000000
46.818990	17.388759	15.916622	0.978780	-1.174644	2.705764	0.000000	-0.154152	0.000000	0.000007	-0.000001	0.000000	0.000000
47.368050	16.053315	17.550553	1.439059	-1.818792	2.599529	0.000000	-0.232251	0.000000	0.000006	-0.000002	0.000000	0.000000
47.917110	14.265561	19.958399	1.797691	-2.592489	2.451483	0.000000	-0.306230	0.000000	0.000005	-0.000002	0.000000	0.000000
48.363070	12.874368	22.099156	1.332909	-2.187665	2.330210	0.000000	-0.237927	0.000000	0.000004	-0.000002	0.000000	0.000000
48.804030	11.879059	23.813183	0.932794	-1.684579	2.239755	0.000000	-0.172731	0.000000	0.000004	-0.000001	0.000000	0.000000
49.244990	11.216565	25.047906	0.575295	-1.104845	2.177588	0.000000	-0.109503	0.000000	0.000003	-0.000001	0.000000	0.000000
49.685950	10.856619	25.747146	0.244080	-0.474842	2.143001	0.000000	-0.047522	0.000000	0.000002	-0.000001	0.000000	0.000000
50.128160	10.782900	25.878804	-0.049658	0.113256	2.135610	0.000000	0.008681	0.000000	0.000002	-0.000001	0.000000	0.000000
50.425482	10.820647	25.814917	-0.077300	0.101619	2.138192	0.000000	0.008681	0.000000	0.000001	-0.000001	0.000000	0.000000
50.758816	10.882510	25.751519	-0.108289	0.088574	2.141086	0.000000	0.008681	0.000000	0.000001	-0.000001	0.000000	0.000000
51.092149	10.965033	25.696819	-0.139279	0.075528	2.143980	0.000000	0.008681	0.000000	0.000000	-0.000001	0.000000	0.000000
51.426732	11.068416	25.651179	-0.080590	-0.145662	2.146863	0.000000	-0.008736	0.000000	0.000000	-0.000001	0.000000	0.000000
51.724055	11.124377	25.741316	-0.080346	-0.220625	2.144266	0.000000	-0.013994	0.000000	-0.000000	-0.000001	0.000000	0.000000
52.165015	11.340494	25.649500	-0.411618	0.428051	2.151685	0.000000	0.047670	0.000000	-0.000001	-0.000001	0.000000	0.000000
52.605975	11.855922	24.992039	-0.761695	1.057251	2.186388	0.000000	0.109876	0.000000	-0.000001	-0.000001	0.000000	0.000000
53.046935	12.694210	23.798848	-1.146571	1.638347	2.248771	0.000000	0.173334	0.000000	-0.000002	-0.000001	0.000000	0.000000
53.487895	13.893658	22.124215	-1.583831	2.144899	2.339546	0.000000	0.238767	0.000000	-0.000003	-0.000001	0.000000	0.000000
53.933855	15.529627	20.019298	-2.097680	2.555198	2.461249	0.000000	0.307317	0.000000	-0.000003	-0.000002	0.000000	0.000000
54.482915	17.635905	17.650708	-1.715766	1.784167	2.609805	0.000000	0.233013	0.000000	-0.000004	-0.000001	0.000000	0.000000
55.031975	19.253361	16.054467	-1.212660	1.140219	2.716368	0.000000	0.154577	0.000000	-0.000005	-0.000001	0.000000	0.000000
55.581035	20.267745	15.116879	-0.623897	0.577485	2.779047	0.000000	0.073398	0.000000	-0.000006	-0.000001	0.000000	0.000000
56.130095	20.607406	14.771161	0.008935	0.055885	2.796730	0.000000	-0.009083	0.000000	-0.000006	-0.000001	0.000000	0.000000
56.428668	20.638559	14.720831	-0.059429	0.074088	2.796200	0.000000	-0.001775	0.000000	-0.000006	-0.000001	0.000000	0.000000
56.762001	20.683581	14.679028	-0.075637	0.051320	2.795609	0.000000	-0.001775	0.000000	-0.000007	-0.000001	0.000000	0.000000
57.095334	20.739408	14.652404	-0.091845	0.028552	2.795017	0.000000	-0.001775	0.000000	-0.000007	-0.000001	0.000000	0.000000
57.429918	20.806311	14.640944	-0.108114	0.005699	2.794424	0.000000	-0.001775	0.000000	-0.000007	-0.000001	0.000000	0.000000
57.727240	20.874899	14.643593	-0.177117	0.023654	2.793896	0.000000	0.005526	0.000000	-0.000008	-0.000001	0.000000	0.000000
58.276300	20.713279	14.898789	0.469731	-0.491183	2.774292	0.000000	-0.076832	0.000000	-0.000008	-0.000001	0.000000	0.000000
58.825360	19.855439	15.735116	1.083399	-1.041006	2.709777	0.000000	-0.157827	0.000000	-0.000008	-0.000000	0.000000	0.000000
59.374420	18.361972	17.212145	1.620542	-1.664978	2.601494	0.000000	-0.236022	0.000000	-0.000008	-0.000000	0.000000	0.000000
59.923480	16.338370	19.435082	2.043217	-2.407543	2.451365	0.000000	-0.310031	0.000000	-0.000008	0.000000	0.000000	0.000000
60.369440	14.754534	21.410831	1.520881	-2.004085	2.328393	0.000000	-0.241754	0.000000	-0.000008	-0.000000	0.000000	0.000000
60.810400	13.615397	22.966683	1.072232	-1.510818	2.236236	0.000000	-0.176627	0.000000	-0.000008	-0.000000	0.000000	0.000000
61.251360	12.848917	24.055423	0.672570	-0.948810	2.172328	0.000000	-0.113511	0.000000	-0.000009	-0.000001	0.000000	0.000000
61.692320	12.420076	24.627516	0.303635	-0.343632	2.135939	0.000000	-0.051689	0.000000	-0.000009	-0.000001	0.000000	0.000000
62.134530	12.309336	24.656388	-0.021339	0.216656	2.126662	0.000000	0.004329	0.000000	-0.000009	-0.000001	0.000000	0.000000
62.431853	12.329210	24.531308	-0.045505	0.204032	2.127949	0.000000	0.004329	0.000000	-0.000010	-0.000001	0.000000	0.000000
62.765186	12.368577	24.400005	-0.072597	0.189878	2.129392	0.000000	0.004329	0.000000	-0.000010	-0.000001	0.000000	0.000000
63.098520	12.426006	24.278138	-0.099689	0.175724	2.130836	0.000000	0.004329	0.000000	-0.000010	-0.000001	0.000000	0.000000
63.433103	12.501813	24.165303	-0.126882	0.161517	2.132284	0.000000	0.004329	0.000000	-0.000011	-0.000001	0.000000	0.000000
63.730426	12.584448	24.073011	-0.120184	0.089852	2.133572	0.000000	-0.000904	0.000000	-0.000011	-0.000001	0.000000	0.000000
64.171386	12.850716	23.728656	-0.485946	0.688096	2.146712	0.000000	0.060558	0.000000	-0.000011	-0.000001	0.000000	0.000000
64.612346	13.448091	22.868542	-0.873909	1.255032	2.187081	0.000000	0.122709	0.000000	-0.000012	-0.000002	0.000000	0.000000
65.053306	14.403864	21.531801	-1.301798	1.764866	2.255139	0.000000	0.186258	0.000000	-0.000013	-0.000002	0.000000	0.000000
65.494266	15.761703	19.779255	-1.789163	2.194399	2.351659	0.000000	0.251929	0.000000	-0.000014	-0.000002	0.000000	0.000000
65.940226	17.606803	17.665846	-2.362961	2.524841	2.479314	0.000000	0.320870	0.000000	-0.000015	-0.000003	0.000000	0.000000
66.489286	19.972118	15.301624	-1.919475	1.806521	2.635130	0.000000	0.245864	0.000000	-0.000016	-0.000002	0.000000	0.000000
67.038346	21.772646	13.651340	-1.340407	1.216876	2.748503	0.000000	0.166496	0.000000	-0.000017	-0.000002	0.000000	0.000000
67.587406	22.881208	12.597446	-0.666660	0.713906	2.817422	0.000000	0.084175	0.000000	-0.000018	-0.000001	0.000000	0.000000
68.136466	23.219499	12.064877	0.054177	0.261785	2.840665	0.000000	0.000361	0.000000	-0.000018	-0.000000	0.000000	0.000000
68.435038	23.227220	11.897751	-0.019359	0.266437	2.842989	0.000000	0.007785	0.000000	-0.000018	-0.000000	0.000000	0.000000
68.768372	23.244912	11.730128	-0.033716	0.236432	2.845584	0.000000	0.007785	0.000000	-0.000018	-0.000000	0.000000	0.000000
69.101705	23.272174	11.582509	-0.048072	0.206426	2.848179	0.000000	0.007785	0.000000	-0.000018	-0.000000	0.000000	0.000000
69.436288	23.309164	11.454452	-0.062482	0.176308	2.850784	0.000000	0.007785	0.000000	-0.000019	-0.000000	0.000000	0.000000
69.733611	23.350126	11.357568	-0.136307	0.179224	2.853099	0.000000	0.015240	0.000000	-0.000019	-0.000000	0.000000	0.000000
70.282671	23.098778	11.388230	0.591375	-0.235398	2.838287	0.000000	-0.069113	0.000000	-0.000019	0.000000	0.000000	0.000000
