#ParticleID	Turn	x[m]	xp	y[m]	yp	z[m]	dE[GeV]# s	beta_x	beta_y	alpha_x	alpha_y	D_x	D_y	D_px	D_py	orbit_x	orbit_px	orbit_y	orbit_py
0.300000	11.805951	25.050170	-0.010238	-0.026915	2.618194	0.000000	-0.000018	0.000000	-0.000001	0.000002	0.000000	0.000000
0.601250	11.819807	25.070011	-0.035757	-0.038949	2.618188	0.000000	-0.000018	0.000000	-0.000001	0.000002	0.000000	0.000000
0.898573	11.848558	25.096703	-0.031888	-0.112371	2.618182	0.000000	-0.006439	0.000000	-0.000000	0.000002	0.000000	0.000000
1.339533	12.028716	24.917398	-0.378220	0.517448	2.631636	0.000000	0.067520	0.000000	0.000000	0.000002	0.000000	0.000000
1.780493	12.520748	24.190943	-0.741832	1.123723	2.677841	0.000000	0.142248	0.000000	0.000001	0.000002	0.000000	0.000000
2.221453	13.347134	22.950390	-1.139337	1.678870	2.757323	0.000000	0.218596	0.000000	0.000002	0.000002	0.000000	0.000000
2.662413	14.545629	21.252185	-1.588895	2.157630	2.870989	0.000000	0.297434	0.000000	0.000003	0.000002	0.000000	0.000000
3.108373	16.191710	19.148691	-2.115330	2.539353	3.021993	0.000000	0.380149	0.000000	0.000004	0.000002	0.000000	0.000000
3.657433	18.302567	16.786110	-1.706402	1.789002	3.205445	0.000000	0.287111	0.000000	0.000005	0.000002	0.000000	0.000000
4.206493	19.895124	15.173114	-1.176942	1.166078	3.336338	0.000000	0.188980	0.000000	0.000005	0.000002	0.000000	0.000000
4.755553	20.856892	14.194814	-0.564349	0.626211	3.412351	0.000000	0.087498	0.000000	0.000006	0.000001	0.000000	0.000000
5.304613	21.119935	13.781528	0.088107	0.130948	3.432135	0.000000	-0.015536	0.000000	0.000007	0.000001	0.000000	0.000000
5.603185	21.104498	13.688481	0.018775	0.144686	3.430173	0.000000	-0.006569	0.000000	0.000007	0.000001	0.000000	0.000000
5.936519	21.097248	13.600311	0.002975	0.119825	3.427983	0.000000	-0.006569	0.000000	0.000008	0.000001	0.000000	0.000000
6.269852	21.100531	13.528714	-0.012825	0.094963	3.425793	0.000000	-0.006569	0.000000	0.000008	0.000001	0.000000	0.000000
6.604435	21.114419	13.473517	-0.028684	0.070009	3.423594	0.000000	-0.006569	0.000000	0.000009	0.000001	0.000000	0.000000
6.901758	21.135667	13.438480	-0.097997	0.082944	3.421641	0.000000	0.002370	0.000000	0.000009	0.000001	0.000000	0.000000
7.450818	20.883094	13.608339	0.555284	-0.394133	3.394741	0.000000	-0.100209	0.000000	0.000010	0.000001	0.000000	0.000000
7.999878	19.930533	14.314335	1.169341	-0.899283	3.311925	0.000000	-0.201010	0.000000	0.000010	0.000001	0.000000	0.000000
8.548938	18.345267	15.606753	1.700803	-1.468487	3.174662	0.000000	-0.298247	0.000000	0.000010	0.000000	0.000000	0.000000
9.097998	16.239272	17.577652	2.112128	-2.142287	2.985386	0.000000	-0.390193	0.000000	0.000010	-0.000000	0.000000	0.000000
9.543958	14.596256	19.333794	1.585193	-1.778960	2.829681	0.000000	-0.308488	0.000000	0.000010	0.000000	0.000000	0.000000
9.984918	13.401308	20.712582	1.134966	-1.335927	2.710896	0.000000	-0.230782	0.000000	0.000010	0.000000	0.000000	0.000000
10.425878	12.579145	21.672251	0.736591	-0.832110	2.625764	0.000000	-0.155703	0.000000	0.000011	0.000001	0.000000	0.000000
10.866838	12.092206	22.169139	0.371870	-0.290433	2.573317	0.000000	-0.082399	0.000000	0.000011	0.000001	0.000000	0.000000
11.309048	11.918109	22.180111	0.053257	0.210012	2.552937	0.000000	-0.016292	0.000000	0.000012	0.000001	0.000000	0.000000
11.606371	11.893878	22.059390	0.028239	0.196016	2.548092	0.000000	-0.016292	0.000000	0.000012	0.000001	0.000000	0.000000
12.086371	11.886156	21.882060	-0.012150	0.173420	2.540271	0.000000	-0.016292	0.000000	0.000013	0.000001	0.000000	0.000000
12.566371	11.917206	21.726423	-0.052539	0.150825	2.532451	0.000000	-0.016292	0.000000	0.000013	0.000001	0.000000	0.000000
13.046371	11.987031	21.592477	-0.092928	0.128229	2.524630	0.000000	-0.016292	0.000000	0.000014	0.000001	0.000000	0.000000
13.526371	12.095629	21.480222	-0.133317	0.105634	2.516809	0.000000	-0.016292	0.000000	0.000015	0.000001	0.000000	0.000000
14.007621	12.243434	21.389452	-0.173812	0.082979	2.508968	0.000000	-0.016292	0.000000	0.000015	0.000001	0.000000	0.000000
14.304943	12.354229	21.344270	-0.168538	0.016649	2.504124	0.000000	-0.022432	0.000000	0.000016	0.000001	0.000000	0.000000
14.745903	12.661351	21.095990	-0.530588	0.544254	2.509862	0.000000	0.048487	0.000000	0.000016	0.000002	0.000000	0.000000
15.186863	13.297214	20.391587	-0.916880	1.047096	2.546965	0.000000	0.119958	0.000000	0.000017	0.000002	0.000000	0.000000
15.627823	14.290870	19.263113	-1.345061	1.502296	2.615854	0.000000	0.192796	0.000000	0.000018	0.000003	0.000000	0.000000
16.068783	15.687717	17.761911	-1.834694	1.889143	2.717315	0.000000	0.267829	0.000000	0.000019	0.000003	0.000000	0.000000
16.514743	17.575232	15.934785	-2.412907	2.190777	2.854198	0.000000	0.346375	0.000000	0.000021	0.000004	0.000000	0.000000
17.063803	19.999574	13.894694	-1.976394	1.546760	3.020648	0.000000	0.259050	0.000000	0.000022	0.000003	0.000000	0.000000
17.612863	21.864612	12.497526	-1.400279	1.012915	3.137818	0.000000	0.167129	0.000000	0.000024	0.000002	0.000000	0.000000
18.161923	23.038608	11.643762	-0.725254	0.551218	3.203630	0.000000	0.072244	0.000000	0.000025	0.000001	0.000000	0.000000
18.710983	23.438636	11.272591	0.000999	0.128783	3.216914	0.000000	-0.023922	0.000000	0.000025	0.000001	0.000000	0.000000
19.009556	23.478419	11.186212	-0.073014	0.131080	3.212281	0.000000	-0.015519	0.000000	0.000025	0.000001	0.000000	0.000000
19.342889	23.531852	11.108928	-0.087287	0.100769	3.207108	0.000000	-0.015519	0.000000	0.000026	0.000001	0.000000	0.000000
19.676223	23.594801	11.051852	-0.101560	0.070459	3.201935	0.000000	-0.015519	0.000000	0.000026	0.000001	0.000000	0.000000
20.010806	23.667849	11.014747	-0.233150	0.094608	3.196762	0.000000	0.000320	0.000000	0.000026	0.000001	0.000000	0.000000
20.308129	23.810429	10.966586	-0.308594	0.096021	3.196857	0.000000	0.008671	0.000000	0.000026	0.000001	0.000000	0.000000
20.857189	23.738622	11.083083	0.438600	-0.309450	3.175400	0.000000	-0.086713	0.000000	0.000026	-0.000000	0.000000	0.000000
21.406249	22.858532	11.654255	1.154814	-0.736962	3.101918	0.000000	-0.180559	0.000000	0.000026	-0.000001	0.000000	0.000000
21.955309	21.232322	12.720785	1.789458	-1.216967	2.977714	0.000000	-0.271202	0.000000	0.000025	-0.000002	0.000000	0.000000
22.504369	18.974860	14.358638	2.297703	-1.783654	2.804991	0.000000	-0.357035	0.000000	0.000024	-0.000003	0.000000	0.000000
22.950329	17.195688	15.829223	1.705911	-1.500005	2.663060	0.000000	-0.279831	0.000000	0.000023	-0.000002	0.000000	0.000000
23.391289	15.920565	17.001773	1.196754	-1.148959	2.555987	0.000000	-0.206269	0.000000	0.000022	-0.000001	0.000000	0.000000
23.832249	15.068763	17.840406	0.742273	-0.745637	2.480804	0.000000	-0.135056	0.000000	0.000022	-0.000001	0.000000	0.000000
24.273209	14.601365	18.306965	0.321704	-0.308389	2.436654	0.000000	-0.065381	0.000000	0.000022	-0.000000	0.000000	0.000000
24.715418	14.497138	18.379977	-0.048709	0.097757	2.423031	0.000000	-0.002392	0.000000	0.000022	0.000000	0.000000	0.000000
25.012741	14.532215	18.326702	-0.069267	0.081426	2.422320	0.000000	-0.002392	0.000000	0.000022	0.000000	0.000000	0.000000
25.346075	14.586076	18.278520	-0.092315	0.063117	2.421523	0.000000	-0.002392	0.000000	0.000022	0.000000	0.000000	0.000000
25.679408	14.655301	18.242545	-0.115362	0.044808	2.420725	0.000000	-0.002392	0.000000	0.000022	0.000000	0.000000	0.000000
26.013991	14.739939	18.219079	-0.018916	-0.121371	2.419900	0.000000	-0.022024	0.000000	0.000022	0.000000	0.000000	0.000000
26.311314	14.757187	18.296176	-0.002913	-0.182789	2.413352	0.000000	-0.027941	0.000000	0.000022	0.000000	0.000000	0.000000
26.752274	14.941556	18.258982	-0.416781	0.266816	2.416141	0.000000	0.040600	0.000000	0.000022	0.000001	0.000000	0.000000
27.193234	15.497909	17.829131	-0.849690	0.704281	2.449226	0.000000	0.109604	0.000000	0.000023	0.000001	0.000000	0.000000
27.634194	16.451663	17.026181	-1.321418	1.109702	2.512985	0.000000	0.179856	0.000000	0.000023	0.000002	0.000000	0.000000
28.075154	17.846393	15.886666	-1.853519	1.464633	2.608143	0.000000	0.252156	0.000000	0.000024	0.000002	0.000000	0.000000
28.521114	19.770048	14.445264	-2.475274	1.753835	2.737388	0.000000	0.327771	0.000000	0.000025	0.000003	0.000000	0.000000
29.070174	22.215018	12.839341	-1.951372	1.188287	2.894690	0.000000	0.244378	0.000000	0.000027	0.000002	0.000000	0.000000
29.619234	24.005123	11.804614	-1.289635	0.707379	3.004946	0.000000	0.156651	0.000000	0.000028	0.000001	0.000000	0.000000
30.168294	25.013921	11.267382	-0.536805	0.276855	3.066200	0.000000	0.066145	0.000000	0.000028	0.000000	0.000000	0.000000
30.717354	25.170154	11.189377	0.253943	-0.133948	3.077366	0.000000	-0.025534	0.000000	0.000028	-0.000001	0.000000	0.000000
31.015927	25.061442	11.259964	0.175911	-0.131695	3.072142	0.000000	-0.017495	0.000000	0.000028	-0.000000	0.000000	0.000000
31.349260	24.948738	11.357800	0.162199	-0.161812	3.066311	0.000000	-0.017495	0.000000	0.000028	-0.000000	0.000000	0.000000
31.682593	24.845176	11.475714	0.148487	-0.191929	3.060479	0.000000	-0.017495	0.000000	0.000028	-0.000000	0.000000	0.000000
32.017177	24.750419	11.614261	0.134723	-0.222159	3.054626	0.000000	-0.017495	0.000000	0.000028	-0.000000	0.000000	0.000000
32.314499	24.673943	11.754353	0.058039	-0.218317	3.049424	0.000000	-0.009530	0.000000	0.000028	-0.000000	0.000000	0.000000
32.863559	24.187437	12.233266	0.822786	-0.659073	3.019312	0.000000	-0.099996	0.000000	0.000027	-0.000001	0.000000	0.000000
33.412619	22.888245	13.218966	1.529416	-1.146773	2.939943	0.000000	-0.188689	0.000000	0.000026	-0.000002	0.000000	0.000000
33.961679	20.868136	14.781662	2.128015	-1.716155	2.812725	0.000000	-0.274036	0.000000	0.000025	-0.000003	0.000000	0.000000
34.510739	18.269801	17.032662	2.576302	-2.407776	2.639915	0.000000	-0.354521	0.000000	0.000023	-0.000004	0.000000	0.000000
34.956699	16.249440	19.046129	1.970292	-2.088278	2.498154	0.000000	-0.281597	0.000000	0.000021	-0.000003	0.000000	0.000000
35.397659	14.742833	20.711705	1.459319	-1.674508	2.389363	0.000000	-0.212308	0.000000	0.000020	-0.000003	0.000000	0.000000
35.838619	13.655873	21.977251	1.015017	-1.184550	2.310563	0.000000	-0.145438	0.000000	0.000019	-0.000002	0.000000	0.000000
36.279579	12.938899	22.785186	0.617089	-0.640695	2.260857	0.000000	-0.080223	0.000000	0.000018	-0.000002	0.000000	0.000000
36.721789	12.558459	23.099059	0.278040	-0.124379	2.239653	0.000000	-0.021414	0.000000	0.000018	-0.000001	0.000000	0.000000
37.019112	12.400707	23.176907	0.252535	-0.137450	2.233287	0.000000	-0.021414	0.000000	0.000017	-0.000001	0.000000	0.000000
37.352445	12.241882	23.273425	0.223940	-0.152104	2.226149	0.000000	-0.021414	0.000000	0.000017	-0.000001	0.000000	0.000000
37.685779	12.102120	23.379712	0.195346	-0.166758	2.219012	0.000000	-0.021414	0.000000	0.000016	-0.000001	0.000000	0.000000
38.020362	11.981004	23.496222	0.166644	-0.181467	2.211847	0.000000	-0.021414	0.000000	0.000016	-0.000001	0.000000	0.000000
38.317684	11.889494	23.608017	0.170291	-0.252423	2.205481	0.000000	-0.026821	0.000000	0.000016	-0.000001	0.000000	0.000000
38.758644	11.890861	23.569133	-0.173404	0.340266	2.207581	0.000000	0.036352	0.000000	0.000015	-0.000001	0.000000	0.000000
39.199604	12.197674	23.012402	-0.525021	0.917474	2.237602	0.000000	0.099939	0.000000	0.000015	-0.000000	0.000000	0.000000
39.640564	12.823951	21.963152	-0.900625	1.452937	2.295886	0.000000	0.164665	0.000000	0.000015	-0.000000	0.000000	0.000000
40.081524	13.798305	20.469125	-1.317376	1.922293	2.383098	0.000000	0.231266	0.000000	0.000015	0.000000	0.000000	0.000000
40.527484	15.182829	18.575720	-1.798142	2.305472	2.501702	0.000000	0.300906	0.000000	0.000015	0.000001	0.000000	0.000000
41.076544	16.949535	16.447946	-1.400503	1.592707	2.646389	0.000000	0.225354	0.000000	0.000015	0.000000	0.000000	0.000000
41.625604	18.222346	15.036356	-0.903938	0.993387	2.748433	0.000000	0.145805	0.000000	0.000015	-0.000000	0.000000	0.000000
42.174664	18.911357	14.240409	-0.343524	0.464824	2.806025	0.000000	0.063670	0.000000	0.000015	-0.000001	0.000000	0.000000
42.723724	18.967898	14.003409	0.241155	-0.030630	2.818143	0.000000	-0.019595	0.000000	0.000014	-0.000001	0.000000	0.000000
43.022297	18.858357	14.006220	0.175282	-0.015368	2.814492	0.000000	-0.012232	0.000000	0.000014	-0.000001	0.000000	0.000000
43.502297	18.702678	14.037427	0.149047	-0.049647	2.808621	0.000000	-0.012232	0.000000	0.000014	-0.000001	0.000000	0.000000
43.982297	18.572186	14.101542	0.122813	-0.083925	2.802750	0.000000	-0.012232	0.000000	0.000013	-0.000001	0.000000	0.000000
44.462297	18.466878	14.198564	0.096578	-0.118204	2.796879	0.000000	-0.012232	0.000000	0.000012	-0.000001	0.000000	0.000000
44.942297	18.386757	14.328493	0.070343	-0.152482	2.791008	0.000000	-0.012232	0.000000	0.000012	-0.000001	0.000000	0.000000
45.423547	18.331937	14.491617	-0.046787	-0.115050	2.785139	0.000000	0.001567	0.000000	0.000011	-0.000001	0.000000	0.000000
45.720870	18.364592	14.566212	-0.111020	-0.097783	2.785605	0.000000	0.008844	0.000000	0.000011	-0.000001	0.000000	0.000000
46.269930	18.177289	14.955258	0.450134	-0.614966	2.767891	0.000000	-0.073275	0.000000	0.000010	-0.000001	0.000000	0.000000
46.818990	17.387664	15.932809	0.979492	-1.175951	2.705380	0.000000	-0.154095	0.000000	0.000009	-0.000002	0.000000	0.000000
47.368050	16.051492	17.568494	1.439664	-1.820697	2.599180	0.000000	-0.232182	0.000000	0.000008	-0.000002	0.000000	0.000000
47.917110	14.263152	19.978820	1.798146	-2.595127	2.451175	0.000000	-0.306150	0.000000	0.000007	-0.000002	0.000000	0.000000
48.363070	12.871555	22.121734	1.333363	-2.189843	2.329937	0.000000	-0.237855	0.000000	0.000006	-0.000002	0.000000	0.000000
48.804030	11.875838	23.837442	0.933269	-1.686198	2.239512	0.000000	-0.172666	0.000000	0.000005	-0.000002	0.000000	0.000000
49.244990	11.212909	25.073319	0.575812	-1.105833	2.177373	0.000000	-0.109443	0.000000	0.000004	-0.000002	0.000000	0.000000
49.685950	10.852479	25.773133	0.244663	-0.475153	2.142811	0.000000	-0.047467	0.000000	0.000003	-0.000002	0.000000	0.000000
50.128160	10.778204	25.904760	-0.048994	0.113573	2.135443	0.000000	0.008731	0.000000	0.000003	-0.000002	0.000000	0.000000
50.425482	10.815560	25.840681	-0.076645	0.101947	2.138040	0.000000	0.008731	0.000000	0.000002	-0.000002	0.000000	0.000000
50.758816	10.876990	25.777061	-0.107646	0.088914	2.140951	0.000000	0.008731	0.000000	0.000001	-0.000002	0.000000	0.000000
51.092149	10.959088	25.722130	-0.138647	0.075880	2.143862	0.000000	0.008731	0.000000	0.000001	-0.000002	0.000000	0.000000
51.426732	11.062053	25.676251	-0.080022	-0.145501	2.146762	0.000000	-0.008684	0.000000	0.000000	-0.000002	0.000000	0.000000
51.724055	11.117680	25.766289	-0.079808	-0.220513	2.144181	0.000000	-0.013943	0.000000	-0.000000	-0.000002	0.000000	0.000000
52.165015	11.333250	25.674083	-0.410913	0.428820	2.151621	0.000000	0.047719	0.000000	-0.000001	-0.000002	0.000000	0.000000
52.605975	11.847973	25.015666	-0.760792	1.058642	2.186346	0.000000	0.109924	0.000000	-0.000002	-0.000002	0.000000	0.000000
53.046935	12.685363	23.820995	-1.145430	1.640297	2.248751	0.000000	0.173382	0.000000	-0.000003	-0.000002	0.000000	0.000000
53.487895	13.883680	22.144428	-1.582399	2.147320	2.339546	0.000000	0.238814	0.000000	-0.000003	-0.000002	0.000000	0.000000
53.933855	15.518216	20.037181	-2.095888	2.557979	2.461270	0.000000	0.307364	0.000000	-0.000004	-0.000002	0.000000	0.000000
54.482915	17.622683	17.665932	-1.714278	1.786257	2.609853	0.000000	0.233059	0.000000	-0.000005	-0.000002	0.000000	0.000000
55.031975	19.238721	16.067706	-1.211581	1.141765	2.716440	0.000000	0.154621	0.000000	-0.000006	-0.000002	0.000000	0.000000
55.581035	20.252181	15.128667	-0.623303	0.578598	2.779143	0.000000	0.073439	0.000000	-0.000007	-0.000001	0.000000	0.000000
56.130095	20.591478	14.781927	0.009001	0.056644	2.796848	0.000000	-0.009045	0.000000	-0.000008	-0.000001	0.000000	0.000000
56.428668	20.622570	14.731123	-0.059333	0.074888	2.796330	0.000000	-0.001736	0.000000	-0.000008	-0.000001	0.000000	0.000000
56.762001	20.667532	14.688783	-0.075554	0.052133	2.795751	0.000000	-0.001736	0.000000	-0.000009	-0.000001	0.000000	0.000000
57.095334	20.723308	14.661613	-0.091774	0.029378	2.795173	0.000000	-0.001736	0.000000	-0.000009	-0.000001	0.000000	0.000000
57.429918	20.790168	14.649596	-0.108055	0.006538	2.794592	0.000000	-0.001736	0.000000	-0.000009	-0.000001	0.000000	0.000000
57.727240	20.858724	14.651742	-0.177028	0.024527	2.794077	0.000000	0.005565	0.000000	-0.000010	-0.000001	0.000000	0.000000
58.276300	20.697304	14.906102	0.469280	-0.490526	2.774492	0.000000	-0.076799	0.000000	-0.000010	-0.000001	0.000000	0.000000
58.825360	19.840244	15.741803	1.082439	-1.040517	2.709993	0.000000	-0.157801	0.000000	-0.000011	-0.000001	0.000000	0.000000
59.374420	18.348081	17.218371	1.619141	-1.664622	2.601723	0.000000	-0.236003	0.000000	-0.000011	-0.000000	0.000000	0.000000
59.923480	16.326215	19.440978	2.041475	-2.407295	2.451602	0.000000	-0.310020	0.000000	-0.000011	0.000000	0.000000	0.000000
60.369440	14.743764	21.416407	1.519506	-2.003616	2.328636	0.000000	-0.241736	0.000000	-0.000011	-0.000000	0.000000	0.000000
60.810400	13.605702	22.971756	1.071159	-1.510152	2.236489	0.000000	-0.176603	0.000000	-0.000011	-0.000000	0.000000	0.000000
61.251360	12.840053	24.059833	0.671750	-0.947977	2.172592	0.000000	-0.113481	0.000000	-0.000011	-0.000001	0.000000	0.000000
61.692320	12.411839	24.631130	0.303031	-0.342670	2.136219	0.000000	-0.051651	0.000000	-0.000012	-0.000001	0.000000	0.000000
62.134530	12.301548	24.659110	-0.021775	0.217696	2.126960	0.000000	0.004373	0.000000	-0.000012	-0.000001	0.000000	0.000000
62.431853	12.321686	24.533413	-0.045956	0.205068	2.128261	0.000000	0.004373	0.000000	-0.000013	-0.000001	0.000000	0.000000
62.765186	12.361360	24.401421	-0.073066	0.190909	2.129719	0.000000	0.004373	0.000000	-0.000013	-0.000001	0.000000	0.000000
63.098520	12.419107	24.278867	-0.100176	0.176751	2.131177	0.000000	0.004373	0.000000	-0.000014	-0.000001	0.000000	0.000000
63.433103	12.495246	24.165346	-0.127387	0.162540	2.132641	0.000000	0.004373	0.000000	-0.000014	-0.000001	0.000000	0.000000
63.730426	12.578186	24.072447	-0.120718	0.090870	2.133941	0.000000	-0.000861	0.000000	-0.000014	-0.000001	0.000000	0.000000
64.171386	12.844867	23.727211	-0.486352	0.689072	2.147103	0.000000	0.060611	0.000000	-0.000015	-0.000002	0.000000	0.000000
64.612346	13.442551	22.866270	-0.874205	1.255923	2.187498	0.000000	0.122773	0.000000	-0.000016	-0.000002	0.000000	0.000000
65.053306	14.398542	21.528797	-1.301999	1.765630	2.255586	0.000000	0.186333	0.000000	-0.000017	-0.000002	0.000000	0.000000
65.494266	15.756518	19.775646	-1.789277	2.195002	2.352142	0.000000	0.252015	0.000000	-0.000018	-0.000003	0.000000	0.000000
65.940226	17.601682	17.661783	-2.362992	2.525254	2.479839	0.000000	0.320970	0.000000	-0.000020	-0.000003	0.000000	0.000000
66.489286	19.967156	15.297095	-1.919733	1.806962	2.635705	0.000000	0.245946	0.000000	-0.000021	-0.000003	0.000000	0.000000
67.038346	21.768083	13.646296	-1.340873	1.217377	2.749118	0.000000	0.166559	0.000000	-0.000023	-0.000002	0.000000	0.000000
67.587406	22.877256	12.591804	-0.667300	0.714502	2.818066	0.000000	0.084217	0.000000	-0.000024	-0.000001	0.000000	0.000000
68.136466	23.216327	12.058509	0.053407	0.262519	2.841326	0.000000	0.000382	0.000000	-0.000024	-0.000001	0.000000	0.000000
68.435038	23.224505	11.890960	-0.020127	0.267131	2.843657	0.000000	0.007808	0.000000	-0.000024	-0.000001	0.000000	0.000000
68.768372	23.242709	11.722884	-0.034485	0.237099	2.846260	0.000000	0.007808	0.000000	-0.000024	-0.000001	0.000000	0.000000
69.101705	23.270486	11.574829	-0.048844	0.207066	2.848863	0.000000	0.007808	0.000000	-0.000025	-0.000001	0.000000	0.000000
69.436288	23.307992	11.446354	-0.063256	0.176920	2.851475	0.000000	0.007808	0.000000	-0.000025	-0.000001	0.000000	0.000000
69.733611	23.349415	11.349114	-0.137084	0.179791	2.853797	0.000000	0.015266	0.000000	-0.000025	-0.000001	0.000000	0.000000
70.282671	23.098926	11.379021	0.590597	-0.234583	2.838993	0.000000	-0.069110	0.000000	-0.000025	0.000000	0.000000	0.000000
