#ParticleID	Turn	x[m]	xp	y[m]	yp	z[m]	dE[GeV]# s	beta_x	beta_y	alpha_x	alpha_y	D_x	D_y	D_px	D_py	orbit_x	orbit_px	orbit_y	orbit_py
0.300000	11.808768	25.039344	-0.010486	-0.027056	2.618117	0.000000	0.000011	0.000000	-0.000001	0.000001	0.000000	0.000000
0.601250	11.822771	25.059272	-0.035999	-0.039096	2.618119	0.000000	0.000011	0.000000	-0.000000	0.000001	0.000000	0.000000
0.898573	11.851665	25.086053	-0.032116	-0.112496	2.618122	0.000000	-0.006409	0.000000	0.000000	0.000001	0.000000	0.000000
1.339533	12.032057	24.906983	-0.378526	0.517044	2.631589	0.000000	0.067548	0.000000	0.000001	0.000002	0.000000	0.000000
1.780493	12.524397	24.181000	-0.742229	1.123059	2.677806	0.000000	0.142275	0.000000	0.000002	0.000002	0.000000	0.000000
2.221453	13.351179	22.941138	-1.139842	1.677976	2.757300	0.000000	0.218622	0.000000	0.000002	0.000002	0.000000	0.000000
2.662413	14.550175	21.243809	-1.589531	2.156546	2.870977	0.000000	0.297459	0.000000	0.000003	0.000002	0.000000	0.000000
3.108373	16.196894	19.141348	-2.116129	2.538128	3.021992	0.000000	0.380174	0.000000	0.000004	0.000002	0.000000	0.000000
3.657433	18.308556	16.779944	-1.707062	1.788071	3.205458	0.000000	0.287136	0.000000	0.000005	0.000002	0.000000	0.000000
4.206493	19.901739	15.167841	-1.177416	1.165374	3.336365	0.000000	0.189005	0.000000	0.000005	0.000001	0.000000	0.000000
4.755553	20.863908	14.190213	-0.564603	0.625684	3.412391	0.000000	0.087521	0.000000	0.000006	0.000001	0.000000	0.000000
5.304613	21.127101	13.777426	0.088090	0.130561	3.432188	0.000000	-0.015514	0.000000	0.000007	0.000001	0.000000	0.000000
5.603185	21.111684	13.684618	0.018744	0.144284	3.430232	0.000000	-0.006547	0.000000	0.000007	0.000001	0.000000	0.000000
5.936519	21.104452	13.596717	0.002950	0.119419	3.428050	0.000000	-0.006547	0.000000	0.000007	0.000001	0.000000	0.000000
6.269852	21.107751	13.525393	-0.012845	0.094553	3.425867	0.000000	-0.006547	0.000000	0.000008	0.000001	0.000000	0.000000
6.604435	21.121650	13.470472	-0.028699	0.069595	3.423676	0.000000	-0.006547	0.000000	0.000008	0.000001	0.000000	0.000000
6.901758	21.142904	13.435682	-0.098025	0.082518	3.421729	0.000000	0.002392	0.000000	0.000009	0.000001	0.000000	0.000000
7.450818	20.890230	13.605967	0.555496	-0.394488	3.394841	0.000000	-0.100190	0.000000	0.000009	0.000001	0.000000	0.000000
7.999878	19.937309	14.312326	1.169780	-0.899593	3.312034	0.000000	-0.200995	0.000000	0.000009	0.000000	0.000000	0.000000
8.548938	18.351451	15.605070	1.701437	-1.468774	3.174779	0.000000	-0.298234	0.000000	0.000010	0.000000	0.000000	0.000000
9.097998	16.244673	17.576280	2.112912	-2.142572	2.985509	0.000000	-0.390184	0.000000	0.000010	-0.000000	0.000000	0.000000
9.543958	14.601034	19.332709	1.585813	-1.779315	2.829809	0.000000	-0.308477	0.000000	0.000010	0.000000	0.000000	0.000000
9.984918	13.405600	20.711835	1.135450	-1.336335	2.711029	0.000000	-0.230767	0.000000	0.000010	0.000000	0.000000	0.000000
10.425878	12.583061	21.671881	0.736963	-0.832554	2.625905	0.000000	-0.155685	0.000000	0.000010	0.000001	0.000000	0.000000
10.866838	12.095837	22.169168	0.372146	-0.290892	2.573467	0.000000	-0.082376	0.000000	0.000010	0.000001	0.000000	0.000000
11.309048	11.921533	22.180545	0.053459	0.209558	2.553097	0.000000	-0.016266	0.000000	0.000011	0.000001	0.000000	0.000000
11.606371	11.897180	22.060093	0.028448	0.195564	2.548260	0.000000	-0.016266	0.000000	0.000011	0.000001	0.000000	0.000000
12.086371	11.889252	21.883195	-0.011931	0.172974	2.540452	0.000000	-0.016266	0.000000	0.000012	0.000001	0.000000	0.000000
12.566371	11.920087	21.727984	-0.052309	0.150383	2.532644	0.000000	-0.016266	0.000000	0.000012	0.000001	0.000000	0.000000
13.046371	11.989685	21.594460	-0.092687	0.127792	2.524835	0.000000	-0.016266	0.000000	0.000013	0.000001	0.000000	0.000000
13.526371	12.098047	21.482624	-0.133066	0.105201	2.517027	0.000000	-0.016266	0.000000	0.000013	0.000001	0.000000	0.000000
14.007621	12.245605	21.392268	-0.173549	0.082551	2.509198	0.000000	-0.016266	0.000000	0.000014	0.000001	0.000000	0.000000
14.304943	12.356242	21.347340	-0.168263	0.016215	2.504362	0.000000	-0.022407	0.000000	0.000014	0.000001	0.000000	0.000000
14.745903	12.663139	21.099403	-0.530350	0.543912	2.510113	0.000000	0.048518	0.000000	0.000015	0.000001	0.000000	0.000000
15.186863	13.298805	20.395256	-0.916668	1.046862	2.547231	0.000000	0.119996	0.000000	0.000015	0.000002	0.000000	0.000000
15.627823	14.292282	19.266937	-1.344865	1.502180	2.616139	0.000000	0.192841	0.000000	0.000016	0.000002	0.000000	0.000000
16.068783	15.688960	17.765783	-1.834506	1.889150	2.717621	0.000000	0.267882	0.000000	0.000017	0.000003	0.000000	0.000000
16.514743	17.576306	15.938595	-2.412717	2.190909	2.854529	0.000000	0.346436	0.000000	0.000019	0.000003	0.000000	0.000000
17.063803	20.000401	13.898411	-1.976136	1.546800	3.021010	0.000000	0.259099	0.000000	0.000020	0.000003	0.000000	0.000000
17.612863	21.865125	12.501247	-1.399969	1.012867	3.138205	0.000000	0.167167	0.000000	0.000021	0.000002	0.000000	0.000000
18.161923	23.038763	11.647586	-0.724916	0.551078	3.204033	0.000000	0.072269	0.000000	0.000022	0.000001	0.000000	0.000000
18.710983	23.438415	11.276625	0.001341	0.128540	3.217328	0.000000	-0.023911	0.000000	0.000023	0.000000	0.000000	0.000000
19.009556	23.477994	11.190379	-0.072672	0.130860	3.212698	0.000000	-0.015506	0.000000	0.000023	0.000000	0.000000	0.000000
19.342889	23.531199	11.113238	-0.086944	0.100563	3.207530	0.000000	-0.015506	0.000000	0.000023	0.000000	0.000000	0.000000
19.676223	23.593919	11.056295	-0.101217	0.070265	3.202361	0.000000	-0.015506	0.000000	0.000023	0.000000	0.000000	0.000000
20.010806	23.666737	11.019315	-0.232801	0.094451	3.197193	0.000000	0.000335	0.000000	0.000023	0.000001	0.000000	0.000000
20.308129	23.809109	10.971244	-0.308241	0.095888	3.197292	0.000000	0.008687	0.000000	0.000024	0.000001	0.000000	0.000000
20.857189	23.736941	11.087960	0.438902	-0.309717	3.175840	0.000000	-0.086711	0.000000	0.000024	-0.000000	0.000000	0.000000
21.406249	22.856557	11.659506	1.155044	-0.737382	3.102355	0.000000	-0.180571	0.000000	0.000023	-0.000001	0.000000	0.000000
21.955309	21.230143	12.726593	1.789599	-1.217569	2.978141	0.000000	-0.271228	0.000000	0.000023	-0.000002	0.000000	0.000000
22.504369	18.972581	14.365227	2.297745	-1.784481	2.805399	0.000000	-0.357075	0.000000	0.000022	-0.000002	0.000000	0.000000
22.950329	17.193354	15.836482	1.705991	-1.500675	2.663454	0.000000	-0.279861	0.000000	0.000021	-0.000002	0.000000	0.000000
23.391289	15.918143	17.009541	1.196876	-1.149442	2.556370	0.000000	-0.206288	0.000000	0.000020	-0.000001	0.000000	0.000000
23.832249	15.066213	17.848508	0.742442	-0.745910	2.481180	0.000000	-0.135065	0.000000	0.000020	-0.000001	0.000000	0.000000
24.273209	14.598642	18.315211	0.321928	-0.308440	2.437028	0.000000	-0.065381	0.000000	0.000019	-0.000000	0.000000	0.000000
24.715418	14.494189	18.388169	-0.048426	0.097909	2.423408	0.000000	-0.002383	0.000000	0.000019	0.000000	0.000000	0.000000
25.012741	14.529098	18.334801	-0.068988	0.081585	2.422699	0.000000	-0.002383	0.000000	0.000019	0.000000	0.000000	0.000000
25.346075	14.582774	18.286511	-0.092039	0.063284	2.421905	0.000000	-0.002383	0.000000	0.000020	0.000000	0.000000	0.000000
25.679408	14.651817	18.250423	-0.115091	0.044982	2.421110	0.000000	-0.002383	0.000000	0.000020	0.000000	0.000000	0.000000
26.013991	14.736275	18.226838	-0.018679	-0.121253	2.420288	0.000000	-0.022018	0.000000	0.000020	0.000000	0.000000	0.000000
26.311314	14.753383	18.303862	-0.002689	-0.182683	2.413742	0.000000	-0.027936	0.000000	0.000020	-0.000000	0.000000	0.000000
26.752274	14.937513	18.266482	-0.416460	0.267129	2.416535	0.000000	0.040615	0.000000	0.000020	0.000001	0.000000	0.000000
27.193234	15.493535	17.836270	-0.849258	0.704786	2.449629	0.000000	0.109629	0.000000	0.000020	0.000001	0.000000	0.000000
27.634194	16.446852	17.032798	-1.320856	1.110376	2.513401	0.000000	0.179891	0.000000	0.000021	0.000002	0.000000	0.000000
28.075154	17.841019	15.892625	-1.852800	1.465445	2.608577	0.000000	0.252202	0.000000	0.000021	0.000002	0.000000	0.000000
28.521114	19.763951	14.450450	-2.474364	1.754749	2.737846	0.000000	0.327829	0.000000	0.000023	0.000003	0.000000	0.000000
29.070174	22.208006	12.843641	-1.950627	1.188998	2.895176	0.000000	0.244421	0.000000	0.000024	0.000002	0.000000	0.000000
29.619234	23.997407	11.808221	-1.289106	0.707936	3.005451	0.000000	0.156678	0.000000	0.000025	0.000001	0.000000	0.000000
30.168294	25.005760	11.270442	-0.536530	0.277300	3.066716	0.000000	0.066155	0.000000	0.000025	0.000000	0.000000	0.000000
30.717354	25.161840	11.191997	0.253945	-0.133586	3.077882	0.000000	-0.025540	0.000000	0.000025	-0.000000	0.000000	0.000000
31.015927	25.053117	11.262360	0.175929	-0.131317	3.072657	0.000000	-0.017500	0.000000	0.000025	-0.000000	0.000000	0.000000
31.349260	24.940403	11.359941	0.162212	-0.161424	3.066824	0.000000	-0.017500	0.000000	0.000025	-0.000000	0.000000	0.000000
31.682593	24.836834	11.477593	0.148495	-0.191532	3.060991	0.000000	-0.017500	0.000000	0.000025	-0.000000	0.000000	0.000000
32.017177	24.742073	11.615871	0.134727	-0.221752	3.055136	0.000000	-0.017500	0.000000	0.000024	-0.000000	0.000000	0.000000
32.314499	24.665596	11.755719	0.058058	-0.217898	3.049933	0.000000	-0.009533	0.000000	0.000024	-0.000000	0.000000	0.000000
32.863559	24.179220	12.234183	0.822531	-0.658669	3.019814	0.000000	-0.100016	0.000000	0.000024	-0.000001	0.000000	0.000000
33.412619	22.880453	13.219434	1.528903	-1.146355	2.940430	0.000000	-0.188725	0.000000	0.000023	-0.000002	0.000000	0.000000
33.961679	20.861032	14.781650	2.127282	-1.715694	2.813188	0.000000	-0.274087	0.000000	0.000022	-0.000003	0.000000	0.000000
34.510739	18.263601	17.032105	2.575399	-2.407239	2.640345	0.000000	-0.354587	0.000000	0.000020	-0.000003	0.000000	0.000000
34.956699	16.243956	19.045075	1.969582	-2.087706	2.498558	0.000000	-0.281652	0.000000	0.000019	-0.000003	0.000000	0.000000
35.397659	14.737905	20.710142	1.458766	-1.673928	2.389744	0.000000	-0.212353	0.000000	0.000018	-0.000002	0.000000	0.000000
35.838619	13.651372	21.975183	1.014597	-1.183988	2.310927	0.000000	-0.145473	0.000000	0.000017	-0.000002	0.000000	0.000000
36.279579	12.934717	22.782640	0.616782	-0.640178	2.261208	0.000000	-0.080249	0.000000	0.000016	-0.000001	0.000000	0.000000
36.721789	12.554504	23.096084	0.277824	-0.123923	2.239994	0.000000	-0.021432	0.000000	0.000015	-0.000001	0.000000	0.000000
37.019112	12.396882	23.173661	0.252313	-0.136994	2.233622	0.000000	-0.021432	0.000000	0.000015	-0.000001	0.000000	0.000000
37.352445	12.238207	23.269875	0.223713	-0.151649	2.226479	0.000000	-0.021432	0.000000	0.000015	-0.000001	0.000000	0.000000
37.685779	12.098598	23.375859	0.195113	-0.166303	2.219335	0.000000	-0.021432	0.000000	0.000014	-0.000001	0.000000	0.000000
38.020362	11.977641	23.492064	0.166405	-0.181012	2.212165	0.000000	-0.021432	0.000000	0.000014	-0.000001	0.000000	0.000000
38.317684	11.886273	23.603588	0.170040	-0.251959	2.205793	0.000000	-0.026840	0.000000	0.000014	-0.000001	0.000000	0.000000
38.758644	11.887830	23.564349	-0.173585	0.340607	2.207886	0.000000	0.036341	0.000000	0.000013	-0.000001	0.000000	0.000000
39.199604	12.194775	23.007377	-0.525139	0.917675	2.237904	0.000000	0.099936	0.000000	0.000013	-0.000000	0.000000	0.000000
39.640564	12.821131	21.958015	-0.900686	1.452990	2.296189	0.000000	0.164669	0.000000	0.000013	-0.000000	0.000000	0.000000
40.081524	13.795514	20.464008	-1.317383	1.922195	2.383405	0.000000	0.231278	0.000000	0.000013	0.000000	0.000000	0.000000
40.527484	15.180020	18.570757	-1.798095	2.305227	2.502016	0.000000	0.300926	0.000000	0.000013	0.000001	0.000000	0.000000
41.076544	16.946736	16.443175	-1.400568	1.592599	2.646711	0.000000	0.225364	0.000000	0.000013	0.000000	0.000000	0.000000
41.625604	18.219680	15.031634	-0.904113	0.993408	2.748759	0.000000	0.145805	0.000000	0.000013	-0.000000	0.000000	0.000000
42.174664	18.908937	14.235593	-0.343795	0.464975	2.806348	0.000000	0.063659	0.000000	0.000013	-0.000001	0.000000	0.000000
42.723724	18.965820	13.998352	0.240807	-0.030339	2.818457	0.000000	-0.019616	0.000000	0.000012	-0.000001	0.000000	0.000000
43.022297	18.856484	14.000998	0.174939	-0.015097	2.814799	0.000000	-0.012252	0.000000	0.000012	-0.000001	0.000000	0.000000
43.502297	18.701135	14.031951	0.148704	-0.049388	2.808919	0.000000	-0.012252	0.000000	0.000012	-0.000001	0.000000	0.000000
43.982297	18.570971	14.095824	0.122470	-0.083679	2.803038	0.000000	-0.012252	0.000000	0.000011	-0.000001	0.000000	0.000000
44.462297	18.465992	14.192615	0.096236	-0.117970	2.797158	0.000000	-0.012252	0.000000	0.000010	-0.000001	0.000000	0.000000
44.942297	18.386199	14.322327	0.070001	-0.152261	2.791277	0.000000	-0.012252	0.000000	0.000010	-0.000001	0.000000	0.000000
45.423547	18.331708	14.485244	-0.047127	-0.114873	2.785398	0.000000	0.001548	0.000000	0.000009	-0.000001	0.000000	0.000000
45.720870	18.364565	14.559736	-0.111362	-0.097631	2.785859	0.000000	0.008826	0.000000	0.000009	-0.000001	0.000000	0.000000
46.269930	18.177635	14.948506	0.449801	-0.614613	2.768133	0.000000	-0.073301	0.000000	0.000008	-0.000001	0.000000	0.000000
46.818990	17.388359	15.925548	0.979192	-1.175373	2.705606	0.000000	-0.154129	0.000000	0.000008	-0.000002	0.000000	0.000000
47.368050	16.052488	17.560456	1.439418	-1.819851	2.599385	0.000000	-0.232222	0.000000	0.000007	-0.000002	0.000000	0.000000
47.917110	14.264383	19.969679	1.797970	-2.593954	2.451356	0.000000	-0.306197	0.000000	0.000006	-0.000002	0.000000	0.000000
48.363070	12.872943	22.111635	1.333183	-2.188876	2.330098	0.000000	-0.237897	0.000000	0.000005	-0.000002	0.000000	0.000000
48.804030	11.877391	23.826598	0.933075	-1.685482	2.239655	0.000000	-0.172704	0.000000	0.000004	-0.000002	0.000000	0.000000
49.244990	11.214641	25.061966	0.575597	-1.105399	2.177499	0.000000	-0.109478	0.000000	0.000003	-0.000002	0.000000	0.000000
49.685950	10.854415	25.761530	0.244416	-0.475022	2.142923	0.000000	-0.047499	0.000000	0.000003	-0.000002	0.000000	0.000000
50.128160	10.780377	25.893178	-0.049279	0.113423	2.135542	0.000000	0.008702	0.000000	0.000002	-0.000002	0.000000	0.000000
50.425482	10.817901	25.829189	-0.076926	0.101793	2.138130	0.000000	0.008702	0.000000	0.000001	-0.000002	0.000000	0.000000
50.758816	10.879517	25.765674	-0.107922	0.088754	2.141031	0.000000	0.008702	0.000000	0.000001	-0.000002	0.000000	0.000000
51.092149	10.961797	25.710851	-0.138917	0.075715	2.143932	0.000000	0.008702	0.000000	0.000000	-0.000002	0.000000	0.000000
51.426732	11.064940	25.665084	-0.080263	-0.145581	2.146822	0.000000	-0.008714	0.000000	-0.000000	-0.000002	0.000000	0.000000
51.724055	11.120709	25.755171	-0.080035	-0.220571	2.144232	0.000000	-0.013973	0.000000	-0.000001	-0.000002	0.000000	0.000000
52.165015	11.336512	25.663146	-0.411215	0.428469	2.151659	0.000000	0.047690	0.000000	-0.000001	-0.000002	0.000000	0.000000
52.605975	11.851538	25.005162	-0.761183	1.058015	2.186372	0.000000	0.109896	0.000000	-0.000002	-0.000002	0.000000	0.000000
53.046935	12.689318	23.811156	-1.145926	1.639422	2.248764	0.000000	0.173354	0.000000	-0.000003	-0.000002	0.000000	0.000000
53.487895	13.888128	22.135456	-1.583024	2.146236	2.339547	0.000000	0.238786	0.000000	-0.000003	-0.000002	0.000000	0.000000
53.933855	15.523290	20.029251	-2.096671	2.556737	2.461259	0.000000	0.307337	0.000000	-0.000004	-0.000002	0.000000	0.000000
54.482915	17.628547	17.659190	-1.714925	1.785322	2.609826	0.000000	0.233033	0.000000	-0.000005	-0.000002	0.000000	0.000000
55.031975	19.245198	16.061853	-1.212045	1.141071	2.716399	0.000000	0.154595	0.000000	-0.000006	-0.000002	0.000000	0.000000
55.581035	20.259053	15.123466	-0.623553	0.578097	2.779088	0.000000	0.073415	0.000000	-0.000007	-0.000001	0.000000	0.000000
56.130095	20.598497	14.777189	0.008985	0.056299	2.796780	0.000000	-0.009067	0.000000	-0.000008	-0.000001	0.000000	0.000000
56.428668	20.629608	14.726600	-0.059363	0.074525	2.796255	0.000000	-0.001759	0.000000	-0.000008	-0.000001	0.000000	0.000000
56.762001	20.674589	14.684503	-0.075578	0.051764	2.795669	0.000000	-0.001759	0.000000	-0.000008	-0.000001	0.000000	0.000000
57.095334	20.730379	14.657581	-0.091793	0.029004	2.795084	0.000000	-0.001759	0.000000	-0.000009	-0.000001	0.000000	0.000000
57.429918	20.797249	14.645816	-0.108069	0.006158	2.794495	0.000000	-0.001759	0.000000	-0.000009	-0.000001	0.000000	0.000000
57.727240	20.865812	14.648191	-0.177055	0.024132	2.793973	0.000000	0.005542	0.000000	-0.000009	-0.000001	0.000000	0.000000
58.276300	20.704291	14.902930	0.469489	-0.490827	2.774377	0.000000	-0.076818	0.000000	-0.000010	-0.000001	0.000000	0.000000
58.825360	19.846877	15.738922	1.082871	-1.040747	2.709868	0.000000	-0.157816	0.000000	-0.000010	-0.000000	0.000000	0.000000
59.374420	18.354132	17.215710	1.619764	-1.664796	2.601591	0.000000	-0.236014	0.000000	-0.000010	-0.000000	0.000000	0.000000
59.923480	16.331497	19.438483	2.042245	-2.407426	2.451465	0.000000	-0.310026	0.000000	-0.000010	0.000000	0.000000	0.000000
60.369440	14.748433	21.414072	1.520115	-2.003843	2.328495	0.000000	-0.241746	0.000000	-0.000010	-0.000000	0.000000	0.000000
60.810400	13.609894	22.969659	1.071636	-1.510463	2.236342	0.000000	-0.176617	0.000000	-0.000010	-0.000000	0.000000	0.000000
61.251360	12.843875	24.058043	0.672117	-0.948358	2.172439	0.000000	-0.113499	0.000000	-0.000011	-0.000001	0.000000	0.000000
61.692320	12.415379	24.629701	0.303305	-0.343104	2.136056	0.000000	-0.051673	0.000000	-0.000011	-0.000001	0.000000	0.000000
62.134530	12.304882	24.658082	-0.021574	0.217232	2.126787	0.000000	0.004347	0.000000	-0.000011	-0.000001	0.000000	0.000000
62.431853	12.324899	24.532660	-0.045748	0.204605	2.128080	0.000000	0.004347	0.000000	-0.000012	-0.000001	0.000000	0.000000
62.765186	12.364431	24.400976	-0.072850	0.190449	2.129529	0.000000	0.004347	0.000000	-0.000012	-0.000001	0.000000	0.000000
63.098520	12.422032	24.278729	-0.099952	0.176292	2.130979	0.000000	0.004347	0.000000	-0.000012	-0.000001	0.000000	0.000000
63.433103	12.498019	24.165514	-0.127156	0.162083	2.132434	0.000000	0.004347	0.000000	-0.000013	-0.000001	0.000000	0.000000
63.730426	12.580819	24.072886	-0.120474	0.090415	2.133726	0.000000	-0.000886	0.000000	-0.000013	-0.000001	0.000000	0.000000
64.171386	12.847310	23.728042	-0.486161	0.688641	2.146876	0.000000	0.060580	0.000000	-0.000014	-0.000001	0.000000	0.000000
64.612346	13.444845	22.867463	-0.874059	1.255534	2.187255	0.000000	0.122736	0.000000	-0.000014	-0.000002	0.000000	0.000000
65.053306	14.400725	21.530307	-1.301891	1.765302	2.255325	0.000000	0.186289	0.000000	-0.000015	-0.000002	0.000000	0.000000
65.494266	15.758621	19.777413	-1.789202	2.194750	2.351861	0.000000	0.251965	0.000000	-0.000016	-0.000003	0.000000	0.000000
65.940226	17.603732	17.663736	-2.362947	2.525090	2.479533	0.000000	0.320912	0.000000	-0.000018	-0.000003	0.000000	0.000000
66.489286	19.969104	15.299237	-1.919593	1.806780	2.635370	0.000000	0.245898	0.000000	-0.000019	-0.000002	0.000000	0.000000
67.038346	21.769831	13.648654	-1.340649	1.217164	2.748760	0.000000	0.166522	0.000000	-0.000020	-0.000002	0.000000	0.000000
67.587406	22.878718	12.594418	-0.667008	0.714243	2.817691	0.000000	0.084193	0.000000	-0.000021	-0.000001	0.000000	0.000000
68.136466	23.217440	12.061441	0.053747	0.262196	2.840941	0.000000	0.000370	0.000000	-0.000022	-0.000000	0.000000	0.000000
68.435038	23.225417	11.894078	-0.019788	0.266827	2.843268	0.000000	0.007794	0.000000	-0.000022	-0.000001	0.000000	0.000000
68.768372	23.243394	11.726200	-0.034145	0.236806	2.845866	0.000000	0.007794	0.000000	-0.000022	-0.000001	0.000000	0.000000
69.101705	23.270944	11.578336	-0.048503	0.206786	2.848464	0.000000	0.007794	0.000000	-0.000022	-0.000001	0.000000	0.000000
69.436288	23.308222	11.450044	-0.062915	0.176653	2.851072	0.000000	0.007794	0.000000	-0.000022	-0.000001	0.000000	0.000000
69.733611	23.349442	11.352960	-0.136740	0.179544	2.853390	0.000000	0.015251	0.000000	-0.000023	-0.000001	0.000000	0.000000
70.282671	23.098579	11.383199	0.590931	-0.234943	2.838582	0.000000	-0.069112	0.000000	-0.000023	0.000000	0.000000	0.000000
