#ParticleID	Turn	x[m]	xp	y[m]	yp	z[m]	dE[GeV]# s	beta_x	beta_y	alpha_x	alpha_y	D_x	D_y	D_px	D_py	orbit_x	orbit_px	orbit_y	orbit_py
0.300000	11.832973	24.944278	-0.013514	-0.027776	2.618311	0.000000	-0.000064	0.000000	0.000000	0.000000	0.000000	0.000000
0.601250	11.848786	24.964654	-0.038978	-0.039862	2.618292	0.000000	-0.000064	0.000000	0.000000	0.000000	0.000000	0.000000
0.898573	11.879436	24.991904	-0.034977	-0.113078	2.618273	0.000000	-0.006485	0.000000	0.000000	0.000000	0.000000	0.000000
1.339533	12.062652	24.814444	-0.382093	0.513987	2.631707	0.000000	0.067476	0.000000	0.000000	0.000000	0.000000	0.000000
1.780493	12.558508	24.092201	-0.746666	1.117666	2.677894	0.000000	0.142206	0.000000	0.000000	0.000000	0.000000	0.000000
2.221453	13.389659	22.858038	-1.145352	1.670493	2.757359	0.000000	0.218555	0.000000	0.000000	0.000000	0.000000	0.000000
2.662413	14.594077	21.168108	-1.596365	2.147313	2.871007	0.000000	0.297393	0.000000	0.000000	0.000000	0.000000	0.000000
3.108373	16.247603	19.074515	-2.124613	2.527561	3.021993	0.000000	0.380108	0.000000	0.000001	0.000000	0.000000	0.000000
3.657433	18.367923	16.723224	-1.714254	1.780110	3.205424	0.000000	0.287071	0.000000	0.000001	0.000000	0.000000	0.000000
4.206493	19.968056	15.118698	-1.182808	1.159453	3.336296	0.000000	0.188941	0.000000	0.000001	0.000000	0.000000	0.000000
4.755553	20.934976	14.146652	-0.567815	0.621380	3.412288	0.000000	0.087461	0.000000	0.000001	0.000000	0.000000	0.000000
5.304613	21.200387	13.737847	0.087286	0.127568	3.432053	0.000000	-0.015571	0.000000	0.000001	0.000000	0.000000	0.000000
5.603185	21.185550	13.646899	0.017796	0.141148	3.430081	0.000000	-0.006604	0.000000	0.000001	0.000000	0.000000	0.000000
5.936519	21.178933	13.561105	0.002057	0.116235	3.427880	0.000000	-0.006604	0.000000	0.000001	0.000000	0.000000	0.000000
6.269852	21.182807	13.491919	-0.013682	0.091323	3.425678	0.000000	-0.006604	0.000000	0.000001	0.000000	0.000000	0.000000
6.604435	21.197249	13.439175	-0.029480	0.066318	3.423469	0.000000	-0.006604	0.000000	0.000001	0.000000	0.000000	0.000000
6.901758	21.218953	13.406346	-0.098959	0.079125	3.421505	0.000000	0.002336	0.000000	0.000001	0.000000	0.000000	0.000000
7.450818	20.965900	13.579917	0.557115	-0.397114	3.394588	0.000000	-0.100239	0.000000	0.000001	0.000000	0.000000	0.000000
7.999878	20.009844	14.288825	1.173837	-0.901638	3.311757	0.000000	-0.201035	0.000000	0.000001	0.000000	0.000000	0.000000
8.548938	18.418317	15.583564	1.707645	-1.470383	3.174482	0.000000	-0.298266	0.000000	0.000001	-0.000000	0.000000	0.000000
9.097998	16.303735	17.556356	2.120833	-2.143861	2.985198	0.000000	-0.390206	0.000000	0.000001	-0.000000	0.000000	0.000000
9.543958	14.653828	19.314289	1.591996	-1.781388	2.829487	0.000000	-0.308507	0.000000	0.000001	-0.000000	0.000000	0.000000
9.984918	13.453596	20.695552	1.140192	-1.339092	2.710692	0.000000	-0.230805	0.000000	0.000001	-0.000000	0.000000	0.000000
10.425878	12.627429	21.658287	0.740480	-0.835869	2.625550	0.000000	-0.155732	0.000000	0.000001	0.000000	0.000000	0.000000
10.866838	12.137582	22.158689	0.374598	-0.294614	2.573089	0.000000	-0.082433	0.000000	0.000001	0.000000	0.000000	0.000000
11.309048	11.961539	22.173476	0.055059	0.205610	2.552692	0.000000	-0.016333	0.000000	0.000001	0.000000	0.000000	0.000000
11.606371	11.936211	22.055366	0.030128	0.191635	2.547836	0.000000	-0.016333	0.000000	0.000001	0.000000	0.000000	0.000000
12.086371	11.926608	21.882227	-0.010123	0.169072	2.539997	0.000000	-0.016333	0.000000	0.000001	0.000000	0.000000	0.000000
12.566371	11.955646	21.730748	-0.050373	0.146509	2.532157	0.000000	-0.016333	0.000000	0.000001	0.000000	0.000000	0.000000
13.046371	12.023325	21.600929	-0.090623	0.123947	2.524317	0.000000	-0.016333	0.000000	0.000001	0.000000	0.000000	0.000000
13.526371	12.129643	21.492770	-0.130874	0.101384	2.516478	0.000000	-0.016333	0.000000	0.000001	0.000000	0.000000	0.000000
14.007621	12.275030	21.406074	-0.171229	0.078763	2.508617	0.000000	-0.016333	0.000000	0.000001	0.000000	0.000000	0.000000
14.304943	12.384263	21.363394	-0.165791	0.012398	2.503761	0.000000	-0.022472	0.000000	0.000001	0.000000	0.000000	0.000000
14.745903	12.689232	21.118607	-0.528437	0.540612	2.509481	0.000000	0.048437	0.000000	0.000001	0.000000	0.000000	0.000000
15.186863	13.323424	20.417086	-0.915225	1.044229	2.546560	0.000000	0.119898	0.000000	0.000001	0.000000	0.000000	0.000000
15.627823	14.315811	19.290750	-1.343828	1.500334	2.615421	0.000000	0.192725	0.000000	0.000001	0.000000	0.000000	0.000000
16.068783	15.711734	17.790845	-1.833826	1.888175	2.716849	0.000000	0.267746	0.000000	0.000001	0.000000	0.000000	0.000000
16.514743	17.598622	15.964117	-2.412365	2.190855	2.853693	0.000000	0.346280	0.000000	0.000001	0.000000	0.000000	0.000000
17.063803	20.021762	13.924266	-1.974763	1.546244	3.020098	0.000000	0.258971	0.000000	0.000002	0.000000	0.000000	0.000000
17.612863	21.884459	12.528006	-1.397674	1.011768	3.137231	0.000000	0.167069	0.000000	0.000002	0.000000	0.000000	0.000000
18.161923	23.055140	11.675884	-0.721860	0.549358	3.203016	0.000000	0.072204	0.000000	0.000002	0.000000	0.000000	0.000000
18.710983	23.451114	11.307206	0.004943	0.126077	3.216284	0.000000	-0.023942	0.000000	0.000002	0.000000	0.000000	0.000000
19.009556	23.488565	11.222353	-0.069102	0.128575	3.211645	0.000000	-0.015539	0.000000	0.000002	0.000000	0.000000	0.000000
19.342889	23.539386	11.146701	-0.083361	0.098382	3.206465	0.000000	-0.015539	0.000000	0.000002	0.000000	0.000000	0.000000
19.676223	23.599713	11.091178	-0.097620	0.068188	3.201286	0.000000	-0.015539	0.000000	0.000002	0.000000	0.000000	0.000000
20.010806	23.670119	11.055552	-0.229208	0.092657	3.196107	0.000000	0.000297	0.000000	0.000002	0.000000	0.000000	0.000000
20.308129	23.810347	11.008518	-0.304640	0.094295	3.196195	0.000000	0.008648	0.000000	0.000002	0.000000	0.000000	0.000000
20.857189	23.734221	11.127565	0.442467	-0.312394	3.174732	0.000000	-0.086715	0.000000	0.000002	-0.000000	0.000000	0.000000
21.406249	22.850058	11.702729	1.158321	-0.741334	3.101254	0.000000	-0.180539	0.000000	0.000002	-0.000000	0.000000	0.000000
21.955309	21.220312	12.774979	1.792356	-1.223077	2.977066	0.000000	-0.271161	0.000000	0.000002	-0.000000	0.000000	0.000000
22.504369	18.960100	14.420689	2.299788	-1.791938	2.804370	0.000000	-0.356973	0.000000	0.000002	-0.000000	0.000000	0.000000
22.950329	17.179035	15.898048	1.708088	-1.506848	2.662463	0.000000	-0.279785	0.000000	0.000001	-0.000000	0.000000	0.000000
23.391289	15.901916	17.075883	1.199124	-1.154056	2.555407	0.000000	-0.206238	0.000000	0.000001	-0.000000	0.000000	0.000000
23.832249	15.047900	17.918151	0.744944	-0.748755	2.480233	0.000000	-0.135040	0.000000	0.000001	-0.000000	0.000000	0.000000
24.273209	14.577969	18.386531	0.324798	-0.309386	2.436087	0.000000	-0.065380	0.000000	0.000001	-0.000000	0.000000	0.000000
24.715418	14.470766	18.459466	-0.045109	0.098723	2.422461	0.000000	-0.002405	0.000000	0.000001	-0.000000	0.000000	0.000000
25.012741	14.503711	18.405596	-0.065697	0.082459	2.421746	0.000000	-0.002405	0.000000	0.000001	-0.000000	0.000000	0.000000
25.346075	14.555203	18.356702	-0.088779	0.064225	2.420945	0.000000	-0.002405	0.000000	0.000001	-0.000000	0.000000	0.000000
25.679408	14.622083	18.319963	-0.111861	0.045992	2.420143	0.000000	-0.002405	0.000000	0.000001	-0.000000	0.000000	0.000000
26.013991	14.704390	18.295681	-0.015737	-0.120734	2.419314	0.000000	-0.022032	0.000000	0.000001	-0.000000	0.000000	0.000000
26.311314	14.719761	18.372377	0.000134	-0.182275	2.412763	0.000000	-0.027949	0.000000	0.000001	-0.000000	0.000000	0.000000
26.752274	14.901027	18.333819	-0.412766	0.269383	2.415545	0.000000	0.040577	0.000000	0.000001	0.000000	0.000000	0.000000
27.193234	15.453347	17.900839	-0.844525	0.708785	2.448617	0.000000	0.109565	0.000000	0.000001	0.000000	0.000000	0.000000
27.634194	16.401954	17.093136	-1.314868	1.115937	2.512355	0.000000	0.179800	0.000000	0.000001	0.000000	0.000000	0.000000
28.075154	17.790188	15.947460	-1.845283	1.472316	2.607486	0.000000	0.252084	0.000000	0.000001	0.000000	0.000000	0.000000
28.521114	19.705599	14.498684	-2.464958	1.762619	2.736697	0.000000	0.327682	0.000000	0.000001	0.000000	0.000000	0.000000
29.070174	22.140089	12.884284	-1.942718	1.195036	2.893957	0.000000	0.244312	0.000000	0.000002	0.000000	0.000000	0.000000
29.619234	23.921889	11.843038	-1.283255	0.712572	3.004185	0.000000	0.156609	0.000000	0.000002	0.000000	0.000000	0.000000
30.168294	24.925142	11.300783	-0.533148	0.280864	3.065423	0.000000	0.066128	0.000000	0.000002	0.000000	0.000000	0.000000
30.717354	25.078983	11.218894	0.254617	-0.130840	3.076586	0.000000	-0.025525	0.000000	0.000002	-0.000000	0.000000	0.000000
31.015927	24.969750	11.287549	0.176760	-0.128415	3.071365	0.000000	-0.017487	0.000000	0.000002	-0.000000	0.000000	0.000000
31.349260	24.856498	11.383164	0.162994	-0.158433	3.065536	0.000000	-0.017487	0.000000	0.000002	-0.000000	0.000000	0.000000
31.682593	24.752425	11.498792	0.149227	-0.188451	3.059707	0.000000	-0.017487	0.000000	0.000002	-0.000000	0.000000	0.000000
32.017177	24.657190	11.634978	0.135409	-0.218581	3.053856	0.000000	-0.017487	0.000000	0.000002	-0.000000	0.000000	0.000000
32.314499	24.580321	11.772918	0.058907	-0.214596	3.048657	0.000000	-0.009522	0.000000	0.000002	-0.000000	0.000000	0.000000
32.863559	24.094575	12.247943	0.820543	-0.655671	3.018556	0.000000	-0.099964	0.000000	0.000001	-0.000000	0.000000	0.000000
33.412619	22.799493	13.229971	1.524221	-1.143448	2.939211	0.000000	-0.188633	0.000000	0.000001	-0.000000	0.000000	0.000000
33.961679	20.786552	14.788948	2.120235	-1.712670	2.812029	0.000000	-0.273956	0.000000	0.000001	-0.000000	0.000000	0.000000
34.510739	18.197937	17.035918	2.566486	-2.403881	2.639267	0.000000	-0.354420	0.000000	0.000001	-0.000000	0.000000	0.000000
34.956699	16.185342	19.045668	1.962634	-2.083869	2.497547	0.000000	-0.281512	0.000000	0.000001	-0.000000	0.000000	0.000000
35.397659	14.684678	20.707205	1.453451	-1.669792	2.388789	0.000000	-0.212238	0.000000	0.000001	-0.000000	0.000000	0.000000
35.838619	13.602205	21.968535	1.010671	-1.179741	2.310016	0.000000	-0.145382	0.000000	0.000001	-0.000000	0.000000	0.000000
36.279579	12.888469	22.772268	0.614066	-0.636012	2.260331	0.000000	-0.080181	0.000000	0.000001	-0.000000	0.000000	0.000000
36.721789	12.510170	23.082135	0.276088	-0.120004	2.239142	0.000000	-0.021385	0.000000	0.000001	-0.000000	0.000000	0.000000
37.019112	12.353600	23.157380	0.250510	-0.133070	2.232784	0.000000	-0.021385	0.000000	0.000001	-0.000000	0.000000	0.000000
37.352445	12.196152	23.250977	0.221834	-0.147720	2.225655	0.000000	-0.021385	0.000000	0.000001	-0.000000	0.000000	0.000000
37.685779	12.057821	23.354339	0.193158	-0.162369	2.218527	0.000000	-0.021385	0.000000	0.000001	-0.000000	0.000000	0.000000
38.020362	11.938196	23.467911	0.164375	-0.177073	2.211372	0.000000	-0.021385	0.000000	0.000001	-0.000000	0.000000	0.000000
38.317684	11.848056	23.577091	0.167852	-0.247957	2.205014	0.000000	-0.026792	0.000000	0.000001	-0.000000	0.000000	0.000000
38.758644	11.851164	23.534644	-0.174925	0.343852	2.207124	0.000000	0.036369	0.000000	0.000001	-0.000000	0.000000	0.000000
39.199604	12.158941	22.975200	-0.525694	0.920015	2.237149	0.000000	0.099945	0.000000	0.000001	-0.000000	0.000000	0.000000
39.640564	12.785449	21.924215	-0.900480	1.454319	2.295434	0.000000	0.164659	0.000000	0.000001	-0.000000	0.000000	0.000000
40.081524	13.759313	20.429506	-1.316406	1.922452	2.382640	0.000000	0.231248	0.000000	0.000001	-0.000000	0.000000	0.000000
40.527484	15.142584	18.536514	-1.796298	2.304393	2.501234	0.000000	0.300876	0.000000	0.000001	-0.000000	0.000000	0.000000
41.076544	16.908091	16.409377	-1.400175	1.592618	2.645908	0.000000	0.225339	0.000000	0.000001	-0.000000	0.000000	0.000000
41.625604	18.181390	14.997348	-0.905150	0.994283	2.747949	0.000000	0.145806	0.000000	0.000001	-0.000000	0.000000	0.000000
42.174664	18.872542	14.199852	-0.346190	0.466767	2.805546	0.000000	0.063687	0.000000	0.000001	-0.000000	0.000000	0.000000
42.723724	18.932728	13.960084	0.237223	-0.027501	2.817677	0.000000	-0.019563	0.000000	0.000001	-0.000000	0.000000	0.000000
43.022297	18.825486	13.961111	0.171429	-0.012415	2.814035	0.000000	-0.012201	0.000000	0.000001	-0.000000	0.000000	0.000000
43.502297	18.673512	13.989536	0.145183	-0.046802	2.808178	0.000000	-0.012201	0.000000	0.000000	-0.000000	0.000000	0.000000
43.982297	18.546735	14.050971	0.118936	-0.081189	2.802322	0.000000	-0.012201	0.000000	0.000000	-0.000000	0.000000	0.000000
44.462297	18.445155	14.145417	0.092689	-0.115575	2.796466	0.000000	-0.012201	0.000000	0.000000	-0.000000	0.000000	0.000000
44.942297	18.368772	14.272875	0.066443	-0.149962	2.790609	0.000000	-0.012201	0.000000	0.000000	-0.000000	0.000000	0.000000
45.423547	18.317712	14.433626	-0.050629	-0.112925	2.784755	0.000000	0.001597	0.000000	0.000000	-0.000000	0.000000	0.000000
45.720870	18.352656	14.506979	-0.114854	-0.095883	2.785230	0.000000	0.008874	0.000000	0.000000	-0.000000	0.000000	0.000000
46.269930	18.169749	14.892936	0.446009	-0.611208	2.767535	0.000000	-0.073234	0.000000	0.000000	-0.000000	0.000000	0.000000
46.818990	17.384681	15.865225	0.975368	-1.170069	2.705049	0.000000	-0.154042	0.000000	0.000000	-0.000000	0.000000	0.000000
47.368050	16.052905	17.493100	1.435831	-1.812271	2.598880	0.000000	-0.232119	0.000000	0.000000	-0.000000	0.000000	0.000000
47.917110	14.268490	19.892510	1.794875	-2.583558	2.450911	0.000000	-0.306078	0.000000	0.000000	-0.000000	0.000000	0.000000
48.363070	12.879709	22.025917	1.330297	-2.180183	2.329702	0.000000	-0.237789	0.000000	0.000000	-0.000000	0.000000	0.000000
48.804030	11.886660	23.734109	0.930263	-1.678880	2.239304	0.000000	-0.172606	0.000000	0.000000	-0.000000	0.000000	0.000000
49.244990	11.226405	24.964692	0.572729	-1.101190	2.177189	0.000000	-0.109389	0.000000	-0.000000	-0.000000	0.000000	0.000000
49.685950	10.868780	25.661673	0.241363	-0.473396	2.142650	0.000000	-0.047417	0.000000	-0.000000	-0.000000	0.000000	0.000000
50.128160	10.797576	25.793060	-0.052615	0.112635	2.135303	0.000000	0.008778	0.000000	-0.000000	-0.000000	0.000000	0.000000
50.425482	10.837073	25.729553	-0.080227	0.100961	2.137913	0.000000	0.008778	0.000000	-0.000000	-0.000000	0.000000	0.000000
50.758816	10.900877	25.666608	-0.111183	0.087874	2.140839	0.000000	0.008778	0.000000	-0.000000	-0.000000	0.000000	0.000000
51.092149	10.985318	25.612388	-0.142140	0.074787	2.143765	0.000000	0.008778	0.000000	-0.000000	-0.000000	0.000000	0.000000
51.426732	11.090605	25.567257	-0.083239	-0.145764	2.146680	0.000000	-0.008637	0.000000	-0.000000	-0.000000	0.000000	0.000000
51.724055	11.148128	25.657466	-0.082894	-0.220560	2.144112	0.000000	-0.013895	0.000000	-0.000000	-0.000000	0.000000	0.000000
52.165015	11.366750	25.566572	-0.414772	0.425902	2.151573	0.000000	0.047765	0.000000	-0.000000	-0.000000	0.000000	0.000000
52.605975	11.885280	24.911951	-0.765600	1.052986	2.186317	0.000000	0.109969	0.000000	-0.000000	-0.000000	0.000000	0.000000
53.046935	12.727408	23.723387	-1.151406	1.632159	2.248741	0.000000	0.173426	0.000000	-0.000000	-0.000000	0.000000	0.000000
53.487895	13.931609	22.054958	-1.589816	2.137071	2.339555	0.000000	0.238858	0.000000	-0.000001	-0.000000	0.000000	0.000000
53.933855	15.573534	19.957629	-2.105100	2.546081	2.461298	0.000000	0.307409	0.000000	-0.000001	-0.000000	0.000000	0.000000
54.482915	17.687397	17.597716	-1.722075	1.777387	2.609904	0.000000	0.233103	0.000000	-0.000001	-0.000000	0.000000	0.000000
55.031975	19.310962	16.007865	-1.217412	1.135291	2.716514	0.000000	0.154662	0.000000	-0.000001	-0.000000	0.000000	0.000000
55.581035	20.329551	15.074836	-0.626756	0.574060	2.779238	0.000000	0.073478	0.000000	-0.000001	-0.000000	0.000000	0.000000
56.130095	20.671214	14.732170	0.008170	0.053718	2.796963	0.000000	-0.009009	0.000000	-0.000001	-0.000000	0.000000	0.000000
56.428668	20.702909	14.683209	-0.060315	0.071772	2.796455	0.000000	-0.001701	0.000000	-0.000001	-0.000000	0.000000	0.000000
56.762001	20.748505	14.642967	-0.076474	0.048954	2.795888	0.000000	-0.001701	0.000000	-0.000001	-0.000000	0.000000	0.000000
57.095334	20.804874	14.617938	-0.092633	0.026135	2.795321	0.000000	-0.001701	0.000000	-0.000001	-0.000000	0.000000	0.000000
57.429918	20.872288	14.608113	-0.108853	0.003231	2.794752	0.000000	-0.001701	0.000000	-0.000001	-0.000000	0.000000	0.000000
57.727240	20.941303	14.612243	-0.177983	0.021057	2.794246	0.000000	0.005600	0.000000	-0.000001	-0.000000	0.000000	0.000000
58.276300	20.779408	14.869808	0.471095	-0.492927	2.774679	0.000000	-0.076770	0.000000	-0.000001	-0.000000	0.000000	0.000000
58.825360	19.918882	15.707642	1.086898	-1.042022	2.710194	0.000000	-0.157778	0.000000	-0.000001	-0.000000	0.000000	0.000000
59.374420	18.420508	17.185421	1.625928	-1.665337	2.601934	0.000000	-0.235987	0.000000	-0.000001	0.000000	0.000000	0.000000
59.923480	16.390124	19.408404	2.050110	-2.407270	2.451821	0.000000	-0.310010	0.000000	-0.000001	0.000000	0.000000	0.000000
60.369440	14.800837	21.384302	1.526255	-2.004690	2.328860	0.000000	-0.241721	0.000000	-0.000001	0.000000	0.000000	0.000000
60.810400	13.657531	22.941064	1.076345	-1.512269	2.236721	0.000000	-0.176582	0.000000	-0.000001	0.000000	0.000000	0.000000
61.251360	12.887908	24.031434	0.675611	-0.951040	2.172834	0.000000	-0.113454	0.000000	-0.000001	-0.000000	0.000000	0.000000
61.692320	12.456806	24.605800	0.305743	-0.346539	2.136474	0.000000	-0.051618	0.000000	-0.000001	-0.000000	0.000000	0.000000
62.134530	12.344579	24.637496	-0.019985	0.213255	2.127231	0.000000	0.004414	0.000000	-0.000001	-0.000000	0.000000	0.000000
62.431853	12.363627	24.514436	-0.044080	0.200639	2.128543	0.000000	0.004414	0.000000	-0.000001	-0.000000	0.000000	0.000000
62.765186	12.402018	24.385391	-0.071093	0.186494	2.130014	0.000000	0.004414	0.000000	-0.000001	-0.000000	0.000000	0.000000
63.098520	12.458418	24.265777	-0.098107	0.172349	2.131486	0.000000	0.004414	0.000000	-0.000001	-0.000000	0.000000	0.000000
63.433103	12.533140	24.155198	-0.125221	0.158151	2.132962	0.000000	0.004414	0.000000	-0.000001	-0.000000	0.000000	0.000000
63.730426	12.614766	24.064905	-0.118381	0.086519	2.134275	0.000000	-0.000820	0.000000	-0.000001	-0.000000	0.000000	0.000000
64.171386	12.879734	23.723557	-0.484788	0.684636	2.147456	0.000000	0.060660	0.000000	-0.000001	-0.000000	0.000000	0.000000
64.612346	13.476353	22.866493	-0.873345	1.251601	2.187873	0.000000	0.122831	0.000000	-0.000001	-0.000000	0.000000	0.000000
65.053306	14.431881	21.532707	-1.301802	1.761620	2.255988	0.000000	0.186401	0.000000	-0.000001	-0.000000	0.000000	0.000000
65.494266	15.789972	19.782886	-1.789734	2.191487	2.352576	0.000000	0.252095	0.000000	-0.000001	-0.000000	0.000000	0.000000
65.940226	17.635846	17.671874	-2.364129	2.522401	2.480309	0.000000	0.321061	0.000000	-0.000001	-0.000000	0.000000	0.000000
66.489286	20.001826	15.310216	-1.919509	1.804263	2.636220	0.000000	0.246021	0.000000	-0.000001	-0.000000	0.000000	0.000000
67.038346	21.801765	13.662384	-1.339304	1.214640	2.749668	0.000000	0.166616	0.000000	-0.000002	-0.000000	0.000000	0.000000
67.587406	22.908524	12.611006	-0.664498	0.711532	2.818642	0.000000	0.084257	0.000000	-0.000002	-0.000000	0.000000	0.000000
68.136466	23.243927	12.081195	0.057246	0.259105	2.841918	0.000000	0.000403	0.000000	-0.000002	-0.000000	0.000000	0.000000
68.435038	23.249845	11.915624	-0.016333	0.263870	2.844255	0.000000	0.007828	0.000000	-0.000002	-0.000000	0.000000	0.000000
68.768372	23.265513	11.749685	-0.030673	0.233948	2.846865	0.000000	0.007828	0.000000	-0.000002	-0.000000	0.000000	0.000000
69.101705	23.290743	11.603694	-0.045014	0.204025	2.849474	0.000000	0.007828	0.000000	-0.000002	-0.000000	0.000000	0.000000
69.436288	23.325681	11.477217	-0.059409	0.173991	2.852093	0.000000	0.007828	0.000000	-0.000002	-0.000000	0.000000	0.000000
69.733611	23.364811	11.381689	-0.133249	0.177040	2.854421	0.000000	0.015286	0.000000	-0.000002	-0.000000	0.000000	0.000000
70.282671	23.109868	11.415129	0.594828	-0.238303	2.839623	0.000000	-0.069110	0.000000	-0.000002	0.000000	0.000000	0.000000
