#ParticleID	Turn	x[m]	xp	y[m]	yp	z[m]	dE[GeV]# s	beta_x	beta_y	alpha_x	alpha_y	D_x	D_y	D_px	D_py	orbit_x	orbit_px	orbit_y	orbit_py
0.300000	11.828196	24.961198	-0.012842	-0.027718	2.618203	0.000000	-0.000022	0.000000	-0.000000	0.000000	0.000000	0.000000
0.601250	11.843607	24.981536	-0.038315	-0.039796	2.618196	0.000000	-0.000022	0.000000	-0.000000	0.000000	0.000000	0.000000
0.898573	11.873866	25.008745	-0.034338	-0.113045	2.618190	0.000000	-0.006443	0.000000	-0.000000	0.000000	0.000000	0.000000
1.339533	12.056458	24.831059	-0.381310	0.514464	2.631642	0.000000	0.067517	0.000000	0.000000	0.000000	0.000000	0.000000
1.780493	12.551548	24.108208	-0.745704	1.118565	2.677846	0.000000	0.142245	0.000000	0.000000	0.000000	0.000000	0.000000
2.221453	13.381755	22.873080	-1.144167	1.671773	2.757328	0.000000	0.218593	0.000000	0.000000	0.000000	0.000000	0.000000
2.662413	14.585011	21.181874	-1.594903	2.148916	2.870992	0.000000	0.297430	0.000000	0.000001	0.000000	0.000000	0.000000
3.108373	16.237083	19.086732	-2.122804	2.529416	3.021995	0.000000	0.380145	0.000000	0.000001	0.000000	0.000000	0.000000
3.657433	18.355549	16.733671	-1.712707	1.781497	3.205446	0.000000	0.287107	0.000000	0.000001	0.000000	0.000000	0.000000
4.206493	19.954179	15.127833	-1.181633	1.160471	3.336338	0.000000	0.188977	0.000000	0.000001	0.000000	0.000000	0.000000
4.755553	20.920053	14.154837	-0.567095	0.622102	3.412350	0.000000	0.087495	0.000000	0.000001	0.000000	0.000000	0.000000
5.304613	21.184948	13.745378	0.087500	0.128044	3.432133	0.000000	-0.015540	0.000000	0.000001	0.000000	0.000000	0.000000
5.603185	21.169963	13.654131	0.018040	0.141652	3.430170	0.000000	-0.006572	0.000000	0.000001	0.000000	0.000000	0.000000
5.936519	21.163186	13.567997	0.002290	0.116750	3.427980	0.000000	-0.006572	0.000000	0.000001	0.000000	0.000000	0.000000
6.269852	21.166910	13.498465	-0.013461	0.091847	3.425789	0.000000	-0.006572	0.000000	0.000002	0.000000	0.000000	0.000000
6.604435	21.181207	13.445367	-0.029271	0.066851	3.423590	0.000000	-0.006572	0.000000	0.000002	0.000000	0.000000	0.000000
6.901758	21.202790	13.412218	-0.098718	0.079682	3.421636	0.000000	0.002368	0.000000	0.000002	0.000000	0.000000	0.000000
7.450818	20.949772	13.585266	0.556812	-0.396713	3.394735	0.000000	-0.100211	0.000000	0.000002	0.000000	0.000000	0.000000
7.999878	19.994339	14.293806	1.173012	-0.901366	3.311918	0.000000	-0.201012	0.000000	0.000002	0.000000	0.000000	0.000000
8.548938	18.403979	15.588308	1.706356	-1.470220	3.174654	0.000000	-0.298248	0.000000	0.000002	0.000000	0.000000	0.000000
9.097998	16.291028	17.560976	2.119171	-2.143796	2.985377	0.000000	-0.390194	0.000000	0.000002	-0.000000	0.000000	0.000000
9.543958	14.642433	19.318778	1.590704	-1.781161	2.829673	0.000000	-0.308490	0.000000	0.000002	0.000000	0.000000	0.000000
9.984918	13.443201	20.699774	1.139208	-1.338715	2.710886	0.000000	-0.230784	0.000000	0.000002	0.000000	0.000000	0.000000
10.425878	12.617783	21.662115	0.739759	-0.835358	2.625754	0.000000	-0.155706	0.000000	0.000002	0.000000	0.000000	0.000000
10.866838	12.128468	22.162015	0.374108	-0.293993	2.573306	0.000000	-0.082401	0.000000	0.000002	0.000000	0.000000	0.000000
11.309048	11.952765	22.176215	0.054755	0.206307	2.552925	0.000000	-0.016295	0.000000	0.000002	0.000000	0.000000	0.000000
11.606371	11.927623	22.057691	0.029806	0.192329	2.548080	0.000000	-0.016295	0.000000	0.000002	0.000000	0.000000	0.000000
12.086371	11.918344	21.883887	-0.010473	0.169763	2.540258	0.000000	-0.016295	0.000000	0.000002	0.000000	0.000000	0.000000
12.566371	11.947731	21.731746	-0.050751	0.147197	2.532436	0.000000	-0.016295	0.000000	0.000002	0.000000	0.000000	0.000000
13.046371	12.015787	21.601268	-0.091030	0.124631	2.524614	0.000000	-0.016295	0.000000	0.000003	0.000000	0.000000	0.000000
13.526371	12.122509	21.492454	-0.131308	0.102065	2.516792	0.000000	-0.016295	0.000000	0.000003	0.000000	0.000000	0.000000
14.007621	12.268328	21.405104	-0.171692	0.079440	2.508950	0.000000	-0.016295	0.000000	0.000003	0.000000	0.000000	0.000000
14.304943	12.377841	21.362022	-0.166288	0.013078	2.504105	0.000000	-0.022436	0.000000	0.000003	0.000000	0.000000	0.000000
14.745903	12.683190	21.116656	-0.528803	0.541239	2.509842	0.000000	0.048483	0.000000	0.000003	0.000000	0.000000	0.000000
15.186863	13.317653	20.414616	-0.915478	1.044775	2.546944	0.000000	0.119953	0.000000	0.000003	0.000000	0.000000	0.000000
15.627823	14.310218	19.287842	-1.343978	1.500774	2.615832	0.000000	0.192790	0.000000	0.000003	0.000000	0.000000	0.000000
16.068783	15.706230	17.787603	-1.833881	1.888490	2.717291	0.000000	0.267823	0.000000	0.000003	0.000001	0.000000	0.000000
16.514743	17.593126	15.960657	-2.412326	2.191029	2.854171	0.000000	0.346368	0.000000	0.000004	0.000001	0.000000	0.000000
17.063803	20.016355	13.920589	-1.974961	1.546466	3.020620	0.000000	0.259043	0.000000	0.000004	0.000001	0.000000	0.000000
17.612863	21.879394	12.524051	-1.398095	1.012055	3.137788	0.000000	0.167124	0.000000	0.000004	0.000000	0.000000	0.000000
18.161923	23.050648	11.671570	-0.722474	0.549730	3.203597	0.000000	0.072240	0.000000	0.000004	0.000000	0.000000	0.000000
18.710983	23.447384	11.302425	0.004178	0.126561	3.216881	0.000000	-0.023925	0.000000	0.000005	0.000000	0.000000	0.000000
19.009556	23.485285	11.217296	-0.069858	0.129030	3.212247	0.000000	-0.015520	0.000000	0.000005	0.000000	0.000000	0.000000
19.342889	23.536612	11.141346	-0.084121	0.098820	3.207073	0.000000	-0.015520	0.000000	0.000005	0.000000	0.000000	0.000000
19.676223	23.597446	11.085536	-0.098383	0.068609	3.201900	0.000000	-0.015520	0.000000	0.000005	0.000000	0.000000	0.000000
20.010806	23.668364	11.049634	-0.229966	0.093032	3.196727	0.000000	0.000318	0.000000	0.000005	0.000000	0.000000	0.000000
20.308129	23.809045	11.002383	-0.305398	0.094637	3.196821	0.000000	0.008671	0.000000	0.000005	0.000000	0.000000	0.000000
20.857189	23.733771	11.120958	0.441682	-0.311872	3.175365	0.000000	-0.086712	0.000000	0.000005	-0.000000	0.000000	0.000000
21.406249	22.850460	11.695434	1.157564	-0.740594	3.101883	0.000000	-0.180557	0.000000	0.000005	-0.000000	0.000000	0.000000
21.955309	21.221504	12.766729	1.791682	-1.222067	2.977680	0.000000	-0.271199	0.000000	0.000005	-0.000000	0.000000	0.000000
22.504369	18.961965	14.411149	2.299244	-1.790585	2.804958	0.000000	-0.357031	0.000000	0.000004	-0.000000	0.000000	0.000000
22.950329	17.181378	15.887393	1.707556	-1.505710	2.663029	0.000000	-0.279828	0.000000	0.000004	-0.000000	0.000000	0.000000
23.391289	15.904731	17.064337	1.198580	-1.153183	2.555957	0.000000	-0.206266	0.000000	0.000004	-0.000000	0.000000	0.000000
23.832249	15.051210	17.905968	0.744363	-0.748188	2.480774	0.000000	-0.135054	0.000000	0.000004	-0.000000	0.000000	0.000000
24.273209	14.581817	18.373993	0.324153	-0.309150	2.436624	0.000000	-0.065380	0.000000	0.000004	-0.000000	0.000000	0.000000
24.715418	14.475224	18.446870	-0.045837	0.098649	2.423002	0.000000	-0.002392	0.000000	0.000004	0.000000	0.000000	0.000000
25.012741	14.508601	18.393048	-0.066420	0.082374	2.422291	0.000000	-0.002392	0.000000	0.000004	0.000000	0.000000	0.000000
25.346075	14.560573	18.344214	-0.089496	0.064128	2.421493	0.000000	-0.002392	0.000000	0.000004	0.000000	0.000000	0.000000
25.679408	14.627930	18.307543	-0.112573	0.045883	2.420696	0.000000	-0.002392	0.000000	0.000004	0.000000	0.000000	0.000000
26.013991	14.710711	18.283339	-0.016392	-0.120755	2.419871	0.000000	-0.022024	0.000000	0.000004	0.000000	0.000000	0.000000
26.311314	14.726469	18.360051	-0.000497	-0.182277	2.413322	0.000000	-0.027942	0.000000	0.000004	0.000000	0.000000	0.000000
26.752274	14.908368	18.321641	-0.413573	0.269049	2.416110	0.000000	0.040598	0.000000	0.000004	0.000000	0.000000	0.000000
27.193234	15.461489	17.889098	-0.845544	0.708132	2.449194	0.000000	0.109601	0.000000	0.000004	0.000000	0.000000	0.000000
27.634194	16.411105	17.082100	-1.316145	1.114997	2.512952	0.000000	0.179852	0.000000	0.000004	0.000000	0.000000	0.000000
28.075154	17.800600	15.937365	-1.846877	1.471129	2.608109	0.000000	0.252151	0.000000	0.000004	0.000000	0.000000	0.000000
28.521114	19.717602	14.489738	-2.466945	1.761241	2.737353	0.000000	0.327765	0.000000	0.000005	0.000001	0.000000	0.000000
29.070174	22.154120	12.876661	-1.944402	1.193989	2.894653	0.000000	0.244374	0.000000	0.000005	0.000000	0.000000	0.000000
29.619234	23.937547	11.836418	-1.284517	0.711783	3.004908	0.000000	0.156648	0.000000	0.000005	0.000000	0.000000	0.000000
30.168294	24.941912	11.294915	-0.533899	0.280275	3.066161	0.000000	0.066143	0.000000	0.000005	0.000000	0.000000	0.000000
30.717354	25.096271	11.213581	0.254430	-0.131269	3.077326	0.000000	-0.025535	0.000000	0.000005	-0.000000	0.000000	0.000000
31.015927	24.987173	11.282505	0.176540	-0.128874	3.072102	0.000000	-0.017494	0.000000	0.000005	-0.000000	0.000000	0.000000
31.349260	24.874065	11.378433	0.162784	-0.158909	3.066271	0.000000	-0.017494	0.000000	0.000005	-0.000000	0.000000	0.000000
31.682593	24.770128	11.494383	0.149028	-0.188944	3.060440	0.000000	-0.017494	0.000000	0.000005	-0.000000	0.000000	0.000000
32.017177	24.675023	11.630905	0.135220	-0.219091	3.054586	0.000000	-0.017494	0.000000	0.000005	-0.000000	0.000000	0.000000
32.314499	24.598263	11.769152	0.058682	-0.215132	3.049385	0.000000	-0.009527	0.000000	0.000005	-0.000000	0.000000	0.000000
32.863559	24.112434	12.244720	0.820917	-0.656130	3.019274	0.000000	-0.099993	0.000000	0.000005	-0.000000	0.000000	0.000000
33.412619	22.816623	13.227224	1.525167	-1.143862	2.939907	0.000000	-0.188685	0.000000	0.000005	-0.000000	0.000000	0.000000
33.961679	20.802358	14.786646	2.121686	-1.713069	2.812691	0.000000	-0.274030	0.000000	0.000004	-0.000001	0.000000	0.000000
34.510739	18.211917	17.034059	2.568340	-2.404294	2.639882	0.000000	-0.354514	0.000000	0.000004	-0.000001	0.000000	0.000000
34.956699	16.197858	19.044227	1.964074	-2.084391	2.498124	0.000000	-0.281591	0.000000	0.000004	-0.000001	0.000000	0.000000
35.397659	14.696081	20.706264	1.454546	-1.670399	2.389334	0.000000	-0.212303	0.000000	0.000004	-0.000000	0.000000	0.000000
35.838619	13.612775	21.968156	1.011471	-1.180404	2.310535	0.000000	-0.145433	0.000000	0.000003	-0.000000	0.000000	0.000000
36.279579	12.898449	22.772488	0.614608	-0.636702	2.260831	0.000000	-0.080219	0.000000	0.000003	-0.000000	0.000000	0.000000
36.721789	12.519775	23.082965	0.276420	-0.120690	2.239628	0.000000	-0.021411	0.000000	0.000003	-0.000000	0.000000	0.000000
37.019112	12.363003	23.158618	0.250858	-0.133758	2.233262	0.000000	-0.021411	0.000000	0.000003	-0.000000	0.000000	0.000000
37.352445	12.205318	23.252674	0.222199	-0.148409	2.226125	0.000000	-0.021411	0.000000	0.000003	-0.000000	0.000000	0.000000
37.685779	12.066738	23.356497	0.193540	-0.163060	2.218988	0.000000	-0.021411	0.000000	0.000003	-0.000000	0.000000	0.000000
38.020362	11.946853	23.470531	0.164773	-0.177766	2.211825	0.000000	-0.021411	0.000000	0.000003	-0.000000	0.000000	0.000000
38.317684	11.856471	23.580124	0.168285	-0.248658	2.205459	0.000000	-0.026819	0.000000	0.000003	-0.000000	0.000000	0.000000
38.758644	11.859280	23.538258	-0.174678	0.343241	2.207559	0.000000	0.036353	0.000000	0.000003	-0.000000	0.000000	0.000000
39.199604	12.166917	22.979303	-0.525622	0.919522	2.237580	0.000000	0.099940	0.000000	0.000003	-0.000000	0.000000	0.000000
39.640564	12.793439	21.928692	-0.900581	1.453966	2.295865	0.000000	0.164665	0.000000	0.000003	-0.000000	0.000000	0.000000
40.081524	13.767469	20.434227	-1.316684	1.922255	2.383077	0.000000	0.231265	0.000000	0.000003	0.000000	0.000000	0.000000
40.527484	15.151073	18.541337	-1.796767	2.304363	2.501680	0.000000	0.300905	0.000000	0.000003	0.000000	0.000000	0.000000
41.076544	16.916926	16.414290	-1.400332	1.592483	2.646367	0.000000	0.225354	0.000000	0.000003	0.000000	0.000000	0.000000
41.625604	18.190219	15.002471	-0.904984	0.994033	2.748412	0.000000	0.145805	0.000000	0.000003	-0.000000	0.000000	0.000000
42.174664	18.881015	14.205320	-0.345712	0.466385	2.806004	0.000000	0.063671	0.000000	0.000003	-0.000000	0.000000	0.000000
42.723724	18.940519	13.966056	0.237979	-0.028043	2.818123	0.000000	-0.019593	0.000000	0.000003	-0.000000	0.000000	0.000000
43.022297	18.832836	13.967396	0.172168	-0.012933	2.814471	0.000000	-0.012230	0.000000	0.000003	-0.000000	0.000000	0.000000
43.502297	18.680151	13.996310	0.145926	-0.047305	2.808601	0.000000	-0.012230	0.000000	0.000002	-0.000000	0.000000	0.000000
43.982297	18.552659	14.058221	0.119683	-0.081676	2.802731	0.000000	-0.012230	0.000000	0.000002	-0.000000	0.000000	0.000000
44.462297	18.450360	14.153129	0.093440	-0.116048	2.796861	0.000000	-0.012230	0.000000	0.000002	-0.000000	0.000000	0.000000
44.942297	18.373254	14.281033	0.067197	-0.150419	2.790991	0.000000	-0.012230	0.000000	0.000002	-0.000000	0.000000	0.000000
45.423547	18.321467	14.442217	-0.049889	-0.113325	2.785123	0.000000	0.001569	0.000000	0.000002	-0.000000	0.000000	0.000000
45.720870	18.355970	14.515804	-0.114118	-0.096250	2.785589	0.000000	0.008848	0.000000	0.000002	-0.000000	0.000000	0.000000
46.269930	18.172200	14.902315	0.446835	-0.611856	2.767877	0.000000	-0.073272	0.000000	0.000002	-0.000000	0.000000	0.000000
46.818990	17.386201	15.875489	0.976226	-1.171043	2.705367	0.000000	-0.154091	0.000000	0.000002	-0.000000	0.000000	0.000000
47.368050	16.053492	17.504642	1.436661	-1.813640	2.599169	0.000000	-0.232177	0.000000	0.000001	-0.000000	0.000000	0.000000
47.917110	14.268209	19.905817	1.795617	-2.585420	2.451166	0.000000	-0.306145	0.000000	0.000001	-0.000000	0.000000	0.000000
48.363070	12.878795	22.040763	1.330977	-2.181758	2.329928	0.000000	-0.237850	0.000000	0.000001	-0.000000	0.000000	0.000000
48.804030	11.885162	23.750192	0.930913	-1.680097	2.239505	0.000000	-0.172662	0.000000	0.000001	-0.000000	0.000000	0.000000
49.244990	11.224336	24.981668	0.573380	-1.101994	2.177367	0.000000	-0.109439	0.000000	0.000001	-0.000000	0.000000	0.000000
49.685950	10.866126	25.679163	0.242042	-0.473750	2.142806	0.000000	-0.047463	0.000000	0.000001	-0.000000	0.000000	0.000000
50.128160	10.794297	25.810657	-0.051883	0.112704	2.135440	0.000000	0.008735	0.000000	0.000000	-0.000000	0.000000	0.000000
50.425482	10.833361	25.747106	-0.079501	0.101038	2.138037	0.000000	0.008735	0.000000	0.000000	-0.000000	0.000000	0.000000
50.758816	10.896683	25.684107	-0.110465	0.087960	2.140949	0.000000	0.008735	0.000000	0.000000	-0.000000	0.000000	0.000000
51.092149	10.980647	25.629826	-0.141428	0.074881	2.143861	0.000000	0.008735	0.000000	0.000000	-0.000000	0.000000	0.000000
51.426732	11.085460	25.584630	-0.082576	-0.145802	2.146762	0.000000	-0.008681	0.000000	0.000000	-0.000000	0.000000	0.000000
51.724055	11.142592	25.674859	-0.082255	-0.220632	2.144181	0.000000	-0.013939	0.000000	-0.000000	-0.000000	0.000000	0.000000
52.165015	11.360589	25.583825	-0.413990	0.426290	2.151623	0.000000	0.047723	0.000000	-0.000000	-0.000000	0.000000	0.000000
52.605975	11.878353	24.928665	-0.764639	1.053816	2.186349	0.000000	0.109928	0.000000	-0.000000	-0.000000	0.000000	0.000000
53.046935	12.719539	23.739186	-1.150222	1.633394	2.248755	0.000000	0.173386	0.000000	-0.000000	-0.000000	0.000000	0.000000
53.487895	13.922578	22.069510	-1.588356	2.138655	2.339551	0.000000	0.238818	0.000000	-0.000001	-0.000000	0.000000	0.000000
53.933855	15.563053	19.970638	-2.103294	2.547942	2.461276	0.000000	0.307369	0.000000	-0.000001	-0.000000	0.000000	0.000000
54.482915	17.675064	17.608958	-1.720531	1.778762	2.609860	0.000000	0.233063	0.000000	-0.000001	-0.000000	0.000000	0.000000
55.031975	19.297128	16.017819	-1.216237	1.136278	2.716449	0.000000	0.154624	0.000000	-0.000001	-0.000000	0.000000	0.000000
55.581035	20.314669	15.083886	-0.626035	0.574729	2.779153	0.000000	0.073443	0.000000	-0.000001	-0.000000	0.000000	0.000000
56.130095	20.655815	14.740638	0.008387	0.054117	2.796859	0.000000	-0.009041	0.000000	-0.000001	-0.000000	0.000000	0.000000
56.428668	20.687359	14.691423	-0.060068	0.072203	2.796342	0.000000	-0.001734	0.000000	-0.000002	-0.000000	0.000000	0.000000
56.762001	20.732795	14.650890	-0.076239	0.049396	2.795764	0.000000	-0.001734	0.000000	-0.000002	-0.000000	0.000000	0.000000
57.095334	20.789012	14.625561	-0.092410	0.026589	2.795186	0.000000	-0.001734	0.000000	-0.000002	-0.000000	0.000000	0.000000
57.429918	20.856281	14.615429	-0.108642	0.003696	2.794606	0.000000	-0.001734	0.000000	-0.000002	-0.000000	0.000000	0.000000
57.727240	20.925173	14.619280	-0.177741	0.021550	2.794091	0.000000	0.005567	0.000000	-0.000002	-0.000000	0.000000	0.000000
58.276300	20.763310	14.876412	0.470795	-0.492628	2.774507	0.000000	-0.076797	0.000000	-0.000002	-0.000000	0.000000	0.000000
58.825360	19.903404	15.714013	1.086076	-1.041895	2.710008	0.000000	-0.157799	0.000000	-0.000002	-0.000000	0.000000	0.000000
59.374420	18.406194	17.191744	1.624643	-1.665375	2.601739	0.000000	-0.236002	0.000000	-0.000002	-0.000000	0.000000	0.000000
59.923480	16.377435	19.414860	2.048452	-2.407475	2.451618	0.000000	-0.310019	0.000000	-0.000002	0.000000	0.000000	0.000000
60.369440	14.789456	21.390851	1.524967	-2.004695	2.328653	0.000000	-0.241735	0.000000	-0.000002	-0.000000	0.000000	0.000000
60.810400	13.647147	22.947529	1.075365	-1.512073	2.236505	0.000000	-0.176602	0.000000	-0.000002	-0.000000	0.000000	0.000000
61.251360	12.878270	24.037641	0.674893	-0.950654	2.172609	0.000000	-0.113479	0.000000	-0.000002	-0.000000	0.000000	0.000000
61.692320	12.447698	24.611589	0.305255	-0.345980	2.136236	0.000000	-0.051649	0.000000	-0.000002	-0.000000	0.000000	0.000000
62.134530	12.335808	24.642723	-0.020286	0.213948	2.126978	0.000000	0.004376	0.000000	-0.000002	-0.000000	0.000000	0.000000
62.431853	12.355041	24.519251	-0.044399	0.201331	2.128279	0.000000	0.004376	0.000000	-0.000002	-0.000000	0.000000	0.000000
62.765186	12.393651	24.389746	-0.071432	0.187185	2.129738	0.000000	0.004376	0.000000	-0.000002	-0.000000	0.000000	0.000000
63.098520	12.450283	24.269671	-0.098464	0.173039	2.131197	0.000000	0.004376	0.000000	-0.000002	-0.000000	0.000000	0.000000
63.433103	12.525250	24.158630	-0.125598	0.158840	2.132661	0.000000	0.004376	0.000000	-0.000003	-0.000000	0.000000	0.000000
63.730426	12.607106	24.067928	-0.118794	0.087199	2.133962	0.000000	-0.000857	0.000000	-0.000003	-0.000000	0.000000	0.000000
64.171386	12.872365	23.725951	-0.485037	0.685378	2.147125	0.000000	0.060615	0.000000	-0.000003	-0.000000	0.000000	0.000000
64.612346	13.469134	22.868216	-0.873440	1.252372	2.187521	0.000000	0.122777	0.000000	-0.000003	-0.000000	0.000000	0.000000
65.053306	14.424680	21.533751	-1.301748	1.762385	2.255611	0.000000	0.186338	0.000000	-0.000003	-0.000000	0.000000	0.000000
65.494266	15.782658	19.783272	-1.789529	2.192210	2.352168	0.000000	0.252021	0.000000	-0.000003	-0.000001	0.000000	0.000000
65.940226	17.628277	17.671646	-2.363763	2.523048	2.479867	0.000000	0.320977	0.000000	-0.000004	-0.000001	0.000000	0.000000
66.489286	19.994011	15.309322	-1.919431	1.804836	2.635735	0.000000	0.245951	0.000000	-0.000004	-0.000000	0.000000	0.000000
67.038346	21.794026	13.660883	-1.339520	1.215178	2.749150	0.000000	0.166563	0.000000	-0.000004	-0.000000	0.000000	0.000000
67.587406	22.901178	12.608916	-0.664992	0.712074	2.818100	0.000000	0.084221	0.000000	-0.000004	-0.000000	0.000000	0.000000
68.136466	23.237262	12.078490	0.056507	0.259690	2.841361	0.000000	0.000385	0.000000	-0.000004	-0.000000	0.000000	0.000000
68.435038	23.243612	11.912578	-0.017059	0.264434	2.843692	0.000000	0.007809	0.000000	-0.000004	-0.000000	0.000000	0.000000
68.768372	23.259767	11.746268	-0.031404	0.234496	2.846295	0.000000	0.007809	0.000000	-0.000004	-0.000000	0.000000	0.000000
69.101705	23.285485	11.599917	-0.045749	0.204557	2.848899	0.000000	0.007809	0.000000	-0.000004	-0.000000	0.000000	0.000000
69.436288	23.320916	11.473089	-0.060148	0.174507	2.851511	0.000000	0.007809	0.000000	-0.000004	-0.000000	0.000000	0.000000
69.733611	23.360487	11.377259	-0.133982	0.177531	2.853833	0.000000	0.015266	0.000000	-0.000005	-0.000000	0.000000	0.000000
70.282671	23.106420	11.410090	0.593974	-0.237678	2.839029	0.000000	-0.069112	0.000000	-0.000005	0.000000	0.000000	0.000000
