#ParticleID	Turn	x[m]	xp	y[m]	yp	z[m]	dE[GeV]# s	beta_x	beta_y	alpha_x	alpha_y	D_x	D_y	D_px	D_py	orbit_x	orbit_px	orbit_y	orbit_py
0.300000	11.802429	25.062522	-0.009988	-0.026727	2.618343	0.000000	-0.000076	0.000000	-0.000002	0.000002	0.000000	0.000000
0.601250	11.816137	25.082249	-0.035515	-0.038755	2.618320	0.000000	-0.000076	0.000000	-0.000001	0.000002	0.000000	0.000000
0.898573	11.844747	25.108824	-0.031662	-0.112201	2.618297	0.000000	-0.006496	0.000000	-0.000000	0.000002	0.000000	0.000000
1.339533	12.024666	24.929228	-0.377902	0.517935	2.631726	0.000000	0.067465	0.000000	0.000000	0.000002	0.000000	0.000000
1.780493	12.516372	24.202211	-0.741407	1.124505	2.677907	0.000000	0.142195	0.000000	0.000001	0.000002	0.000000	0.000000
2.221453	13.342328	22.960852	-1.138785	1.679911	2.757366	0.000000	0.218544	0.000000	0.000002	0.000002	0.000000	0.000000
2.662413	14.540271	21.261631	-1.588191	2.158882	2.871009	0.000000	0.297383	0.000000	0.000003	0.000002	0.000000	0.000000
3.108373	16.185645	19.156946	-2.114441	2.540760	3.021990	0.000000	0.380098	0.000000	0.000004	0.000002	0.000000	0.000000
3.657433	18.295612	16.793011	-1.705681	1.790076	3.205414	0.000000	0.287061	0.000000	0.000005	0.000002	0.000000	0.000000
4.206493	19.887493	15.178983	-1.176440	1.166895	3.336280	0.000000	0.188932	0.000000	0.000006	0.000002	0.000000	0.000000
4.755553	20.848846	14.199900	-0.564101	0.626830	3.412266	0.000000	0.087452	0.000000	0.000007	0.000002	0.000000	0.000000
5.304613	21.111765	13.786022	0.088083	0.131412	3.432025	0.000000	-0.015580	0.000000	0.000008	0.000001	0.000000	0.000000
5.603185	21.096331	13.692690	0.018768	0.145165	3.430050	0.000000	-0.006613	0.000000	0.000008	0.000001	0.000000	0.000000
5.936519	21.089088	13.604200	0.002961	0.120308	3.427846	0.000000	-0.006613	0.000000	0.000009	0.000001	0.000000	0.000000
6.269852	21.092383	13.532280	-0.012845	0.095451	3.425641	0.000000	-0.006613	0.000000	0.000009	0.000001	0.000000	0.000000
6.604435	21.106286	13.476755	-0.028710	0.070501	3.423428	0.000000	-0.006613	0.000000	0.000010	0.000001	0.000000	0.000000
6.901758	21.127550	13.441424	-0.098006	0.083447	3.421461	0.000000	0.002326	0.000000	0.000010	0.000001	0.000000	0.000000
7.450818	20.875137	13.610774	0.555005	-0.393703	3.394538	0.000000	-0.100247	0.000000	0.000011	0.000001	0.000000	0.000000
7.999878	19.923021	14.316323	1.168813	-0.898894	3.311703	0.000000	-0.201042	0.000000	0.000011	0.000001	0.000000	0.000000
8.548938	18.338456	15.608325	1.700063	-1.468112	3.174425	0.000000	-0.298270	0.000000	0.000012	0.000000	0.000000	0.000000
9.097998	16.233367	17.578808	2.111228	-2.141901	2.985138	0.000000	-0.390209	0.000000	0.000012	-0.000000	0.000000	0.000000
9.543958	14.591069	19.334572	1.584477	-1.778501	2.829425	0.000000	-0.308511	0.000000	0.000012	0.000000	0.000000	0.000000
9.984918	13.396685	20.712931	1.134399	-1.335418	2.710628	0.000000	-0.230811	0.000000	0.000012	0.000001	0.000000	0.000000
10.425878	12.574966	21.672138	0.736148	-0.831574	2.625482	0.000000	-0.155740	0.000000	0.000012	0.000001	0.000000	0.000000
10.866838	12.088370	22.168549	0.371530	-0.289894	2.573017	0.000000	-0.082442	0.000000	0.000013	0.000001	0.000000	0.000000
11.309048	11.914533	22.179053	0.052996	0.210533	2.552615	0.000000	-0.016343	0.000000	0.000013	0.000002	0.000000	0.000000
11.606371	11.890460	22.058023	0.027971	0.196533	2.547756	0.000000	-0.016343	0.000000	0.000014	0.000002	0.000000	0.000000
12.086371	11.882999	21.880200	-0.012429	0.173931	2.539910	0.000000	-0.016343	0.000000	0.000015	0.000002	0.000000	0.000000
12.566371	11.914323	21.724075	-0.052829	0.151330	2.532065	0.000000	-0.016343	0.000000	0.000015	0.000002	0.000000	0.000000
13.046371	11.984431	21.589646	-0.093229	0.128729	2.524220	0.000000	-0.016343	0.000000	0.000016	0.000002	0.000000	0.000000
13.526371	12.093322	21.476915	-0.133629	0.106128	2.516374	0.000000	-0.016343	0.000000	0.000017	0.000002	0.000000	0.000000
14.007621	12.241433	21.385673	-0.174134	0.083467	2.508508	0.000000	-0.016343	0.000000	0.000018	0.000002	0.000000	0.000000
14.304943	12.352422	21.340202	-0.168872	0.017145	2.503649	0.000000	-0.022482	0.000000	0.000018	0.000001	0.000000	0.000000
14.745903	12.659825	21.091535	-0.530893	0.544630	2.509363	0.000000	0.048425	0.000000	0.000019	0.000002	0.000000	0.000000
15.186863	13.295949	20.386861	-0.917168	1.047334	2.546435	0.000000	0.119883	0.000000	0.000020	0.000002	0.000000	0.000000
15.627823	14.289858	19.258241	-1.345347	1.502386	2.615288	0.000000	0.192706	0.000000	0.000021	0.000003	0.000000	0.000000
16.068783	15.686960	17.757026	-1.834991	1.889081	2.716706	0.000000	0.267724	0.000000	0.000022	0.000004	0.000000	0.000000
16.514743	17.574750	15.930023	-2.413228	2.190565	2.853538	0.000000	0.346254	0.000000	0.000024	0.000004	0.000000	0.000000
17.063803	19.999479	13.890098	-1.976773	1.546668	3.019927	0.000000	0.258951	0.000000	0.000026	0.000003	0.000000	0.000000
17.612863	21.864953	12.492969	-1.400688	1.012936	3.137050	0.000000	0.167054	0.000000	0.000028	0.000002	0.000000	0.000000
18.161923	23.039402	11.639120	-0.725666	0.551353	3.202826	0.000000	0.072195	0.000000	0.000029	0.000002	0.000000	0.000000
18.710983	23.439870	11.267734	0.000615	0.129043	3.216091	0.000000	-0.023945	0.000000	0.000029	0.000001	0.000000	0.000000
19.009556	23.479882	11.181211	-0.073399	0.131312	3.211450	0.000000	-0.015544	0.000000	0.000030	0.000001	0.000000	0.000000
19.342889	23.533573	11.103778	-0.087672	0.100986	3.206269	0.000000	-0.015544	0.000000	0.000030	0.000001	0.000000	0.000000
19.676223	23.596778	11.046562	-0.101945	0.070660	3.201087	0.000000	-0.015544	0.000000	0.000030	0.000001	0.000000	0.000000
20.010806	23.670083	11.009327	-0.233546	0.094768	3.195906	0.000000	0.000290	0.000000	0.000030	0.000001	0.000000	0.000000
20.308129	23.812899	10.961076	-0.308995	0.096151	3.195992	0.000000	0.008639	0.000000	0.000030	0.000001	0.000000	0.000000
20.857189	23.741486	11.077346	0.438289	-0.309163	3.174525	0.000000	-0.086717	0.000000	0.000031	-0.000000	0.000000	0.000000
21.406249	22.861677	11.648107	1.154616	-0.736498	3.101049	0.000000	-0.180535	0.000000	0.000030	-0.000001	0.000000	0.000000
21.955309	21.235617	12.714014	1.789385	-1.216291	2.976865	0.000000	-0.271150	0.000000	0.000029	-0.000002	0.000000	0.000000
22.504369	18.978163	14.350989	2.297762	-1.782719	2.804178	0.000000	-0.356956	0.000000	0.000028	-0.000003	0.000000	0.000000
22.950329	17.198968	15.820819	1.705904	-1.499255	2.662279	0.000000	-0.279773	0.000000	0.000027	-0.000002	0.000000	0.000000
23.391289	15.923880	16.992802	1.196681	-1.148428	2.555227	0.000000	-0.206231	0.000000	0.000026	-0.000002	0.000000	0.000000
23.832249	15.072173	17.831072	0.742131	-0.745349	2.480057	0.000000	-0.135037	0.000000	0.000026	-0.000001	0.000000	0.000000
24.273209	14.604932	18.297489	0.321487	-0.308356	2.435911	0.000000	-0.065381	0.000000	0.000025	-0.000000	0.000000	0.000000
24.715418	14.500934	18.370587	-0.049004	0.097557	2.422284	0.000000	-0.002409	0.000000	0.000025	0.000000	0.000000	0.000000
25.012741	14.536184	18.317433	-0.069556	0.081219	2.421567	0.000000	-0.002409	0.000000	0.000025	0.000000	0.000000	0.000000
25.346075	14.590236	18.269393	-0.092599	0.062901	2.420764	0.000000	-0.002409	0.000000	0.000025	0.000000	0.000000	0.000000
25.679408	14.659649	18.233565	-0.115641	0.044583	2.419961	0.000000	-0.002409	0.000000	0.000026	0.000000	0.000000	0.000000
26.013991	14.744472	18.210252	-0.019153	-0.121534	2.419130	0.000000	-0.022035	0.000000	0.000026	0.000000	0.000000	0.000000
26.311314	14.761858	18.287448	-0.003134	-0.182937	2.412579	0.000000	-0.027950	0.000000	0.000026	0.000000	0.000000	0.000000
26.752274	14.946472	18.250488	-0.417118	0.266434	2.415359	0.000000	0.040571	0.000000	0.000026	0.000001	0.000000	0.000000
27.193234	15.503179	17.821071	-0.850159	0.703683	2.448427	0.000000	0.109554	0.000000	0.000026	0.000001	0.000000	0.000000
27.634194	16.457414	17.018735	-1.322042	1.108914	2.512159	0.000000	0.179785	0.000000	0.000027	0.000002	0.000000	0.000000
28.075154	17.852772	15.879986	-1.854325	1.463691	2.607281	0.000000	0.252064	0.000000	0.000028	0.000003	0.000000	0.000000
28.521114	19.777242	14.439477	-2.476301	1.752783	2.736480	0.000000	0.327656	0.000000	0.000030	0.000004	0.000000	0.000000
29.070174	22.223238	12.834577	-1.952202	1.187465	2.893727	0.000000	0.244294	0.000000	0.000031	0.000003	0.000000	0.000000
29.619234	24.014118	11.800653	-1.290208	0.706729	3.003945	0.000000	0.156598	0.000000	0.000032	0.000002	0.000000	0.000000
30.168294	25.023384	11.264061	-0.537080	0.276331	3.065179	0.000000	0.066125	0.000000	0.000033	0.000000	0.000000	0.000000
30.717354	25.179747	11.186581	0.253984	-0.134384	3.076343	0.000000	-0.025521	0.000000	0.000033	-0.000001	0.000000	0.000000
31.015927	25.071023	11.257436	0.175934	-0.132149	3.071122	0.000000	-0.017485	0.000000	0.000033	-0.000001	0.000000	0.000000
31.349260	24.958302	11.355578	0.162227	-0.162276	3.065294	0.000000	-0.017485	0.000000	0.000033	-0.000001	0.000000	0.000000
31.682593	24.854720	11.473805	0.148520	-0.192403	3.059466	0.000000	-0.017485	0.000000	0.000032	-0.000001	0.000000	0.000000
32.017177	24.759938	11.612672	0.134762	-0.222643	3.053615	0.000000	-0.017485	0.000000	0.000032	-0.000001	0.000000	0.000000
32.314499	24.683438	11.753056	0.058059	-0.218816	3.048417	0.000000	-0.009522	0.000000	0.000032	-0.000000	0.000000	0.000000
32.863559	24.196737	12.232509	0.823118	-0.659563	3.018318	0.000000	-0.099957	0.000000	0.000032	-0.000001	0.000000	0.000000
33.412619	22.897019	13.218757	1.530036	-1.147289	2.938979	0.000000	-0.188618	0.000000	0.000030	-0.000002	0.000000	0.000000
33.961679	20.876090	14.782051	2.128879	-1.716734	2.811809	0.000000	-0.273934	0.000000	0.000029	-0.000003	0.000000	0.000000
34.510739	18.276699	17.033739	2.577349	-2.408459	2.639063	0.000000	-0.354391	0.000000	0.000027	-0.000004	0.000000	0.000000
34.956699	16.255504	19.047831	1.971121	-2.088991	2.497356	0.000000	-0.281488	0.000000	0.000025	-0.000004	0.000000	0.000000
35.397659	14.748247	20.714038	1.459969	-1.675219	2.388608	0.000000	-0.212220	0.000000	0.000023	-0.000003	0.000000	0.000000
35.838619	13.660781	21.980198	1.015519	-1.185225	2.309843	0.000000	-0.145368	0.000000	0.000022	-0.000002	0.000000	0.000000
36.279579	12.943421	22.788702	0.617465	-0.641305	2.260164	0.000000	-0.080171	0.000000	0.000021	-0.000002	0.000000	0.000000
36.721789	12.562697	23.103075	0.278318	-0.124904	2.238979	0.000000	-0.021378	0.000000	0.000021	-0.000001	0.000000	0.000000
37.019112	12.404778	23.181235	0.252817	-0.137974	2.232623	0.000000	-0.021378	0.000000	0.000020	-0.000001	0.000000	0.000000
37.352445	12.245763	23.278102	0.224229	-0.152628	2.225498	0.000000	-0.021378	0.000000	0.000020	-0.000001	0.000000	0.000000
37.685779	12.105807	23.384738	0.195640	-0.167281	2.218372	0.000000	-0.021378	0.000000	0.000019	-0.000001	0.000000	0.000000
38.020362	11.984493	23.501598	0.166944	-0.181989	2.211220	0.000000	-0.021378	0.000000	0.000019	-0.000001	0.000000	0.000000
38.317684	11.892802	23.613703	0.170603	-0.252957	2.204864	0.000000	-0.026784	0.000000	0.000018	-0.000001	0.000000	0.000000
38.758644	11.893928	23.575223	-0.173164	0.339890	2.206977	0.000000	0.036374	0.000000	0.000018	-0.000001	0.000000	0.000000
39.199604	12.200557	23.018747	-0.524843	0.917273	2.237004	0.000000	0.099945	0.000000	0.000017	-0.000001	0.000000	0.000000
39.640564	12.826701	21.969594	-0.900500	1.452920	2.295288	0.000000	0.164655	0.000000	0.000017	-0.000000	0.000000	0.000000
40.081524	13.800966	20.475500	-1.317298	1.922461	2.382492	0.000000	0.231241	0.000000	0.000017	0.000000	0.000000	0.000000
40.527484	15.185440	18.581864	-1.798109	2.305819	2.501082	0.000000	0.300865	0.000000	0.000018	0.000001	0.000000	0.000000
41.076544	16.952048	16.453805	-1.400356	1.592881	2.645752	0.000000	0.225334	0.000000	0.000018	0.000000	0.000000	0.000000
41.625604	18.224641	15.042115	-0.903690	0.993400	2.747791	0.000000	0.145805	0.000000	0.000018	-0.000000	0.000000	0.000000
42.174664	18.913330	14.246241	-0.343191	0.464676	2.805389	0.000000	0.063691	0.000000	0.000018	-0.000001	0.000000	0.000000
42.723724	18.969469	14.009496	0.241549	-0.030949	2.817525	0.000000	-0.019553	0.000000	0.000017	-0.000001	0.000000	0.000000
43.022297	18.859694	14.012485	0.175673	-0.015662	2.813885	0.000000	-0.012193	0.000000	0.000017	-0.000001	0.000000	0.000000
43.502297	18.703641	14.043968	0.149436	-0.049926	2.808033	0.000000	-0.012193	0.000000	0.000016	-0.000001	0.000000	0.000000
43.982297	18.572776	14.108343	0.123200	-0.084189	2.802181	0.000000	-0.012193	0.000000	0.000015	-0.000001	0.000000	0.000000
44.462297	18.467098	14.205611	0.096963	-0.118453	2.796329	0.000000	-0.012193	0.000000	0.000014	-0.000001	0.000000	0.000000
44.942297	18.386606	14.335773	0.070727	-0.152717	2.790477	0.000000	-0.012193	0.000000	0.000014	-0.000001	0.000000	0.000000
45.423547	18.331418	14.499115	-0.046402	-0.115232	2.784628	0.000000	0.001604	0.000000	0.000013	-0.000001	0.000000	0.000000
45.720870	18.363844	14.573815	-0.110633	-0.097936	2.785105	0.000000	0.008880	0.000000	0.000013	-0.000001	0.000000	0.000000
46.269930	18.176133	14.963156	0.450485	-0.615353	2.767416	0.000000	-0.073224	0.000000	0.000012	-0.000002	0.000000	0.000000
46.818990	17.386153	15.941273	0.979783	-1.176601	2.704937	0.000000	-0.154029	0.000000	0.000011	-0.000002	0.000000	0.000000
47.368050	16.049704	17.577836	1.439873	-1.821655	2.598778	0.000000	-0.232102	0.000000	0.000010	-0.000002	0.000000	0.000000
47.917110	14.261188	19.989412	1.798258	-2.596462	2.450820	0.000000	-0.306058	0.000000	0.000008	-0.000003	0.000000	0.000000
48.363070	12.869480	22.133414	1.333499	-2.190935	2.329621	0.000000	-0.237771	0.000000	0.000007	-0.000003	0.000000	0.000000
48.804030	11.873631	23.849960	0.933433	-1.687000	2.239232	0.000000	-0.172590	0.000000	0.000006	-0.000002	0.000000	0.000000
49.244990	11.210541	25.086401	0.576013	-1.106307	2.177125	0.000000	-0.109374	0.000000	0.000005	-0.000002	0.000000	0.000000
49.685950	10.849915	25.786481	0.244910	-0.475278	2.142592	0.000000	-0.047404	0.000000	0.000004	-0.000002	0.000000	0.000000
50.128160	10.775397	25.918061	-0.048697	0.113770	2.135252	0.000000	0.008790	0.000000	0.000003	-0.000002	0.000000	0.000000
50.425482	10.812578	25.853863	-0.076355	0.102150	2.137866	0.000000	0.008790	0.000000	0.000003	-0.000002	0.000000	0.000000
50.758816	10.873817	25.790106	-0.107363	0.089122	2.140796	0.000000	0.008790	0.000000	0.000002	-0.000002	0.000000	0.000000
51.092149	10.955729	25.735034	-0.138371	0.076095	2.143727	0.000000	0.008790	0.000000	0.000001	-0.000002	0.000000	0.000000
51.426732	11.058511	25.689010	-0.079781	-0.145383	2.146647	0.000000	-0.008625	0.000000	0.000000	-0.000002	0.000000	0.000000
51.724055	11.113998	25.778975	-0.079584	-0.220420	2.144083	0.000000	-0.013883	0.000000	-0.000000	-0.000002	0.000000	0.000000
52.165015	11.329332	25.686540	-0.410601	0.429246	2.151549	0.000000	0.047777	0.000000	-0.000001	-0.000002	0.000000	0.000000
52.605975	11.843735	25.027607	-0.760377	1.059382	2.186300	0.000000	0.109980	0.000000	-0.000002	-0.000002	0.000000	0.000000
53.046935	12.680706	23.832157	-1.144892	1.641317	2.248729	0.000000	0.173437	0.000000	-0.000003	-0.000002	0.000000	0.000000
53.487895	13.878486	22.154583	-1.581714	2.148574	2.339548	0.000000	0.238868	0.000000	-0.000004	-0.000002	0.000000	0.000000
53.933855	15.512334	20.046133	-2.095023	2.559411	2.461297	0.000000	0.307419	0.000000	-0.000005	-0.000002	0.000000	0.000000
54.482915	17.615936	17.673513	-1.713577	1.787337	2.609910	0.000000	0.233113	0.000000	-0.000006	-0.000002	0.000000	0.000000
55.031975	19.231317	16.074257	-1.211093	1.142572	2.716526	0.000000	0.154672	0.000000	-0.000007	-0.000002	0.000000	0.000000
55.581035	20.244374	15.134454	-0.623063	0.579189	2.779256	0.000000	0.073488	0.000000	-0.000008	-0.000002	0.000000	0.000000
56.130095	20.583551	14.787165	0.008977	0.057061	2.796987	0.000000	-0.009000	0.000000	-0.000009	-0.000001	0.000000	0.000000
56.428668	20.614648	14.736102	-0.059342	0.075324	2.796482	0.000000	-0.001692	0.000000	-0.000009	-0.000001	0.000000	0.000000
56.762001	20.659618	14.693469	-0.075569	0.052575	2.795919	0.000000	-0.001692	0.000000	-0.000010	-0.000001	0.000000	0.000000
57.095334	20.715406	14.666001	-0.091796	0.029827	2.795355	0.000000	-0.001692	0.000000	-0.000010	-0.000001	0.000000	0.000000
57.429918	20.782282	14.653682	-0.108083	0.006993	2.794790	0.000000	-0.001692	0.000000	-0.000011	-0.000001	0.000000	0.000000
57.727240	20.850857	14.655556	-0.177041	0.024998	2.794287	0.000000	0.005610	0.000000	-0.000011	-0.000001	0.000000	0.000000
58.276300	20.689597	14.909456	0.469005	-0.490153	2.774726	0.000000	-0.076761	0.000000	-0.000012	-0.000001	0.000000	0.000000
58.825360	19.832974	15.744790	1.081923	-1.040217	2.710246	0.000000	-0.157770	0.000000	-0.000012	-0.000001	0.000000	0.000000
59.374420	18.341495	17.221058	1.618419	-1.664373	2.601990	0.000000	-0.235981	0.000000	-0.000013	-0.000000	0.000000	0.000000
59.923480	16.320512	19.443411	2.040598	-2.407078	2.451879	0.000000	-0.310007	0.000000	-0.000013	0.000000	0.000000	0.000000
60.369440	14.738761	21.418600	1.518807	-2.003299	2.328920	0.000000	-0.241716	0.000000	-0.000013	-0.000000	0.000000	0.000000
60.810400	13.601250	22.973631	1.070604	-1.509749	2.236783	0.000000	-0.176575	0.000000	-0.000013	-0.000001	0.000000	0.000000
61.251360	12.836037	24.061321	0.671314	-0.947507	2.172901	0.000000	-0.113445	0.000000	-0.000013	-0.000001	0.000000	0.000000
61.692320	12.408161	24.632182	0.302694	-0.342154	2.136545	0.000000	-0.051608	0.000000	-0.000014	-0.000001	0.000000	0.000000
62.134530	12.298130	24.659694	-0.022036	0.218232	2.127307	0.000000	0.004425	0.000000	-0.000014	-0.000002	0.000000	0.000000
62.431853	12.318426	24.533678	-0.046224	0.205601	2.128623	0.000000	0.004425	0.000000	-0.000015	-0.000002	0.000000	0.000000
62.765186	12.358281	24.401331	-0.073341	0.191440	2.130099	0.000000	0.004425	0.000000	-0.000015	-0.000002	0.000000	0.000000
63.098520	12.416214	24.278425	-0.100459	0.177279	2.131574	0.000000	0.004425	0.000000	-0.000016	-0.000002	0.000000	0.000000
63.433103	12.492545	24.164552	-0.127678	0.163065	2.133055	0.000000	0.004425	0.000000	-0.000016	-0.000002	0.000000	0.000000
63.730426	12.575660	24.071342	-0.121022	0.091394	2.134371	0.000000	-0.000810	0.000000	-0.000017	-0.000001	0.000000	0.000000
64.171386	12.842587	23.725660	-0.486607	0.689553	2.147557	0.000000	0.060673	0.000000	-0.000018	-0.000002	0.000000	0.000000
64.612346	13.440478	22.864322	-0.874423	1.256339	2.187982	0.000000	0.122846	0.000000	-0.000018	-0.000002	0.000000	0.000000
65.053306	14.396649	21.526518	-1.302189	1.765962	2.256105	0.000000	0.186420	0.000000	-0.000020	-0.000003	0.000000	0.000000
65.494266	15.754784	19.773117	-1.789448	2.195235	2.352703	0.000000	0.252116	0.000000	-0.000021	-0.000003	0.000000	0.000000
65.940226	17.600095	17.659094	-2.363153	2.525377	2.480448	0.000000	0.321086	0.000000	-0.000023	-0.000004	0.000000	0.000000
66.489286	19.965794	15.294252	-1.919980	1.807123	2.636373	0.000000	0.246041	0.000000	-0.000025	-0.000003	0.000000	0.000000
67.038346	21.767033	13.643252	-1.341190	1.217585	2.749832	0.000000	0.166631	0.000000	-0.000026	-0.000002	0.000000	0.000000
67.587406	22.876581	12.588497	-0.667664	0.714774	2.818814	0.000000	0.084266	0.000000	-0.000027	-0.000002	0.000000	0.000000
68.136466	23.216066	12.054859	0.053021	0.262875	2.842094	0.000000	0.000407	0.000000	-0.000028	-0.000001	0.000000	0.000000
68.435038	23.224476	11.887107	-0.020514	0.267465	2.844433	0.000000	0.007834	0.000000	-0.000028	-0.000001	0.000000	0.000000
68.768372	23.242938	11.718813	-0.034872	0.237418	2.847045	0.000000	0.007834	0.000000	-0.000028	-0.000001	0.000000	0.000000
69.101705	23.270972	11.570551	-0.049231	0.207370	2.849656	0.000000	0.007834	0.000000	-0.000029	-0.000001	0.000000	0.000000
69.436288	23.308738	11.441877	-0.063644	0.177210	2.852278	0.000000	0.007834	0.000000	-0.000029	-0.000001	0.000000	0.000000
69.733611	23.350391	11.344468	-0.137476	0.180056	2.854607	0.000000	0.015295	0.000000	-0.000029	-0.000001	0.000000	0.000000
70.282671	23.100312	11.374013	0.590248	-0.234183	2.839813	0.000000	-0.069108	0.000000	-0.000029	0.000000	0.000000	0.000000
