#ParticleID	Turn	x[m]	xp	y[m]	yp	z[m]	dE[GeV]# s	beta_x	beta_y	alpha_x	alpha_y	D_x	D_y	D_px	D_py	orbit_x	orbit_px	orbit_y	orbit_py
0.300000	11.811855	25.026984	-0.010792	-0.027201	2.618066	0.000000	0.000030	0.000000	-0.000001	0.000001	0.000000	0.000000
0.601250	11.826042	25.047001	-0.036299	-0.039247	2.618075	0.000000	0.000030	0.000000	-0.000000	0.000001	0.000000	0.000000
0.898573	11.855112	25.073874	-0.032401	-0.112624	2.618083	0.000000	-0.006390	0.000000	0.000000	0.000001	0.000000	0.000000
1.339533	12.035792	24.895057	-0.378896	0.516597	2.631558	0.000000	0.067566	0.000000	0.000001	0.000001	0.000000	0.000000
1.780493	12.528503	24.169602	-0.742702	1.122313	2.677783	0.000000	0.142293	0.000000	0.000001	0.000001	0.000000	0.000000
2.221453	13.355755	22.930517	-1.140440	1.676965	2.757285	0.000000	0.218639	0.000000	0.000002	0.000001	0.000000	0.000000
2.662413	14.555344	21.234179	-1.590281	2.155316	2.870970	0.000000	0.297476	0.000000	0.000003	0.000001	0.000000	0.000000
3.108373	16.202813	19.132893	-2.117067	2.536735	3.021993	0.000000	0.380191	0.000000	0.000003	0.000002	0.000000	0.000000
3.657433	18.315424	16.772826	-1.707843	1.787014	3.205468	0.000000	0.287153	0.000000	0.000004	0.000001	0.000000	0.000000
4.206493	19.909352	15.161734	-1.177985	1.164578	3.336384	0.000000	0.189021	0.000000	0.000005	0.000001	0.000000	0.000000
4.755553	20.872012	14.184864	-0.564921	0.625092	3.412418	0.000000	0.087537	0.000000	0.000005	0.000001	0.000000	0.000000
5.304613	21.135404	13.772634	0.088047	0.130131	3.432223	0.000000	-0.015500	0.000000	0.000006	0.000001	0.000000	0.000000
5.603185	21.120024	13.680091	0.018685	0.143837	3.430273	0.000000	-0.006533	0.000000	0.000006	0.000001	0.000000	0.000000
5.936519	21.112830	13.592490	0.002896	0.118967	3.428095	0.000000	-0.006533	0.000000	0.000007	0.000001	0.000000	0.000000
6.269852	21.116162	13.521469	-0.012892	0.094096	3.425917	0.000000	-0.006533	0.000000	0.000007	0.000001	0.000000	0.000000
6.604435	21.130091	13.466856	-0.028739	0.069133	3.423731	0.000000	-0.006533	0.000000	0.000007	0.000001	0.000000	0.000000
6.901758	21.151368	13.432342	-0.098083	0.082043	3.421788	0.000000	0.002407	0.000000	0.000008	0.000001	0.000000	0.000000
7.450818	20.898601	13.603099	0.555721	-0.394878	3.394908	0.000000	-0.100177	0.000000	0.000008	0.000001	0.000000	0.000000
7.999878	19.945285	14.309853	1.170272	-0.899926	3.312108	0.000000	-0.200984	0.000000	0.000008	0.000000	0.000000	0.000000
8.548938	18.358756	15.602943	1.702160	-1.469073	3.174857	0.000000	-0.298226	0.000000	0.000008	0.000000	0.000000	0.000000
9.097998	16.251078	17.574473	2.113817	-2.142859	2.985591	0.000000	-0.390179	0.000000	0.000009	-0.000000	0.000000	0.000000
9.543958	14.606720	19.331198	1.586525	-1.779688	2.829894	0.000000	-0.308469	0.000000	0.000009	0.000000	0.000000	0.000000
9.984918	13.410731	20.710683	1.136004	-1.336776	2.711118	0.000000	-0.230757	0.000000	0.000009	0.000000	0.000000	0.000000
10.425878	12.587764	21.671142	0.737383	-0.833042	2.625999	0.000000	-0.155673	0.000000	0.000009	0.000001	0.000000	0.000000
10.866838	12.100221	22.168872	0.372452	-0.291406	2.573567	0.000000	-0.082362	0.000000	0.000009	0.000001	0.000000	0.000000
11.309048	11.925692	22.180707	0.053675	0.209040	2.553204	0.000000	-0.016249	0.000000	0.000010	0.000001	0.000000	0.000000
11.606371	11.901208	22.060561	0.028672	0.195050	2.548372	0.000000	-0.016249	0.000000	0.000010	0.000001	0.000000	0.000000
12.086371	11.893059	21.884154	-0.011693	0.172464	2.540572	0.000000	-0.016249	0.000000	0.000010	0.000001	0.000000	0.000000
12.566371	11.923659	21.729430	-0.052058	0.149878	2.532772	0.000000	-0.016249	0.000000	0.000011	0.000001	0.000000	0.000000
13.046371	11.993011	21.596389	-0.092424	0.127292	2.524972	0.000000	-0.016249	0.000000	0.000011	0.000001	0.000000	0.000000
13.526371	12.101113	21.485030	-0.132789	0.104706	2.517172	0.000000	-0.016249	0.000000	0.000012	0.000001	0.000000	0.000000
14.007621	12.248398	21.395148	-0.173259	0.082061	2.509351	0.000000	-0.016249	0.000000	0.000012	0.000001	0.000000	0.000000
14.304943	12.358860	21.350510	-0.167958	0.015719	2.504520	0.000000	-0.022390	0.000000	0.000013	0.000001	0.000000	0.000000
14.745903	12.665510	21.102969	-0.530095	0.543513	2.510279	0.000000	0.048539	0.000000	0.000013	0.000001	0.000000	0.000000
15.186863	13.300969	20.399125	-0.916450	1.046577	2.547407	0.000000	0.120022	0.000000	0.000014	0.000002	0.000000	0.000000
15.627823	14.294267	19.271002	-1.344675	1.502022	2.616328	0.000000	0.192871	0.000000	0.000014	0.000002	0.000000	0.000000
16.068783	15.690786	17.769929	-1.834335	1.889127	2.717825	0.000000	0.267917	0.000000	0.000015	0.000002	0.000000	0.000000
16.514743	17.577986	15.942700	-2.412558	2.191022	2.854749	0.000000	0.346477	0.000000	0.000017	0.000003	0.000000	0.000000
17.063803	20.001854	13.902445	-1.975884	1.546818	3.021251	0.000000	0.259132	0.000000	0.000018	0.000002	0.000000	0.000000
17.612863	21.866260	12.505313	-1.399644	1.012791	3.138461	0.000000	0.167192	0.000000	0.000019	0.000002	0.000000	0.000000
18.161923	23.039510	11.651789	-0.724540	0.550902	3.204301	0.000000	0.072285	0.000000	0.000020	0.000001	0.000000	0.000000
18.710983	23.438733	11.281080	0.001742	0.128254	3.217603	0.000000	-0.023903	0.000000	0.000020	0.000000	0.000000	0.000000
19.009556	23.478073	11.194995	-0.072272	0.130599	3.212975	0.000000	-0.015497	0.000000	0.000020	0.000000	0.000000	0.000000
19.342889	23.531012	11.118023	-0.086544	0.100316	3.207810	0.000000	-0.015497	0.000000	0.000020	0.000000	0.000000	0.000000
19.676223	23.593465	11.061241	-0.100816	0.070033	3.202644	0.000000	-0.015497	0.000000	0.000021	0.000000	0.000000	0.000000
20.010806	23.666013	11.024411	-0.232395	0.094258	3.197478	0.000000	0.000345	0.000000	0.000021	0.000001	0.000000	0.000000
20.308129	23.808143	10.976451	-0.307833	0.095723	3.197581	0.000000	0.008698	0.000000	0.000021	0.000001	0.000000	0.000000
20.857189	23.735547	11.093428	0.439270	-0.310031	3.176132	0.000000	-0.086710	0.000000	0.000021	-0.000000	0.000000	0.000000
21.406249	22.854793	11.665412	1.155345	-0.737869	3.102646	0.000000	-0.180579	0.000000	0.000021	-0.000001	0.000000	0.000000
21.955309	21.228094	12.733144	1.789812	-1.218263	2.978424	0.000000	-0.271246	0.000000	0.000020	-0.000001	0.000000	0.000000
22.504369	18.970353	14.372675	2.297856	-1.785432	2.805670	0.000000	-0.357101	0.000000	0.000019	-0.000002	0.000000	0.000000
22.950329	17.191014	15.844702	1.706133	-1.501448	2.663714	0.000000	-0.279880	0.000000	0.000018	-0.000002	0.000000	0.000000
23.391289	15.915662	17.018353	1.197056	-1.150004	2.556624	0.000000	-0.206301	0.000000	0.000018	-0.000001	0.000000	0.000000
23.832249	15.063554	17.857713	0.742668	-0.746236	2.481430	0.000000	-0.135072	0.000000	0.000017	-0.000001	0.000000	0.000000
24.273209	14.595759	18.324592	0.322211	-0.308514	2.437276	0.000000	-0.065381	0.000000	0.000017	-0.000000	0.000000	0.000000
24.715418	14.491026	18.397502	-0.048082	0.098067	2.423657	0.000000	-0.002377	0.000000	0.000017	0.000000	0.000000	0.000000
25.012741	14.525732	18.344039	-0.068647	0.081750	2.422950	0.000000	-0.002377	0.000000	0.000017	0.000000	0.000000	0.000000
25.346075	14.579182	18.295636	-0.091703	0.063458	2.422158	0.000000	-0.002377	0.000000	0.000017	0.000000	0.000000	0.000000
25.679408	14.648003	18.259428	-0.114759	0.045165	2.421366	0.000000	-0.002377	0.000000	0.000017	0.000000	0.000000	0.000000
26.013991	14.732240	18.235719	-0.018383	-0.121133	2.420546	0.000000	-0.022014	0.000000	0.000017	0.000000	0.000000	0.000000
26.311314	14.749174	18.312669	-0.002409	-0.182578	2.414001	0.000000	-0.027933	0.000000	0.000017	-0.000000	0.000000	0.000000
26.752274	14.933010	18.275091	-0.416072	0.267471	2.416796	0.000000	0.040625	0.000000	0.000018	0.000000	0.000000	0.000000
27.193234	15.488636	17.844478	-0.848745	0.705349	2.449896	0.000000	0.109645	0.000000	0.000018	0.000001	0.000000	0.000000
27.634194	16.441438	17.040421	-1.320195	1.111135	2.513677	0.000000	0.179915	0.000000	0.000018	0.000001	0.000000	0.000000
28.075154	17.834946	15.899505	-1.851961	1.466365	2.608865	0.000000	0.252233	0.000000	0.000019	0.000002	0.000000	0.000000
28.521114	19.757033	14.456453	-2.473306	1.755788	2.738149	0.000000	0.327868	0.000000	0.000020	0.000002	0.000000	0.000000
29.070174	22.200020	12.848637	-1.949751	1.189803	2.895498	0.000000	0.244449	0.000000	0.000021	0.000002	0.000000	0.000000
29.619234	23.988589	11.812435	-1.288476	0.708565	3.005786	0.000000	0.156695	0.000000	0.000022	0.000001	0.000000	0.000000
30.168294	24.996406	11.274040	-0.536189	0.277797	3.067057	0.000000	0.066162	0.000000	0.000022	0.000000	0.000000	0.000000
30.717354	25.152282	11.195106	0.253972	-0.133185	3.078224	0.000000	-0.025545	0.000000	0.000022	-0.000000	0.000000	0.000000
31.015927	25.043530	11.265222	0.175975	-0.130898	3.072998	0.000000	-0.017503	0.000000	0.000022	-0.000000	0.000000	0.000000
31.349260	24.930788	11.362519	0.162252	-0.160994	3.067164	0.000000	-0.017503	0.000000	0.000022	-0.000000	0.000000	0.000000
31.682593	24.827194	11.479880	0.148530	-0.191091	3.061330	0.000000	-0.017503	0.000000	0.000022	-0.000000	0.000000	0.000000
32.017177	24.732411	11.617860	0.134756	-0.221300	3.055473	0.000000	-0.017503	0.000000	0.000022	-0.000000	0.000000	0.000000
32.314499	24.655918	11.757436	0.058107	-0.217431	3.050269	0.000000	-0.009535	0.000000	0.000022	-0.000000	0.000000	0.000000
32.863559	24.169665	12.235403	0.822259	-0.658224	3.020147	0.000000	-0.100029	0.000000	0.000021	-0.000001	0.000000	0.000000
33.412619	22.871365	13.220164	1.528331	-1.145902	2.940752	0.000000	-0.188749	0.000000	0.000020	-0.000002	0.000000	0.000000
33.961679	20.852720	14.781862	2.126449	-1.715199	2.813495	0.000000	-0.274121	0.000000	0.000019	-0.000002	0.000000	0.000000
34.510739	18.256321	17.031734	2.574365	-2.406667	2.640630	0.000000	-0.354630	0.000000	0.000018	-0.000003	0.000000	0.000000
34.956699	16.237496	19.044173	1.968770	-2.087089	2.498825	0.000000	-0.281688	0.000000	0.000017	-0.000002	0.000000	0.000000
35.397659	14.732077	20.708686	1.458138	-1.673296	2.389997	0.000000	-0.212383	0.000000	0.000016	-0.000002	0.000000	0.000000
35.838619	13.646028	21.973173	1.014124	-1.183368	2.311168	0.000000	-0.145496	0.000000	0.000015	-0.000002	0.000000	0.000000
36.279579	12.929730	22.780100	0.616443	-0.639599	2.261439	0.000000	-0.080266	0.000000	0.000014	-0.000001	0.000000	0.000000
36.721789	12.549763	23.093060	0.277592	-0.123405	2.240220	0.000000	-0.021443	0.000000	0.000014	-0.000001	0.000000	0.000000
37.019112	12.392281	23.170328	0.252075	-0.136476	2.233844	0.000000	-0.021443	0.000000	0.000013	-0.000001	0.000000	0.000000
37.352445	12.233768	23.266198	0.223467	-0.151131	2.226697	0.000000	-0.021443	0.000000	0.000013	-0.000001	0.000000	0.000000
37.685779	12.094326	23.371836	0.194859	-0.165785	2.219549	0.000000	-0.021443	0.000000	0.000013	-0.000001	0.000000	0.000000
38.020362	11.973540	23.487695	0.166144	-0.180494	2.212375	0.000000	-0.021443	0.000000	0.000012	-0.000001	0.000000	0.000000
38.317684	11.882330	23.598911	0.169763	-0.251430	2.206000	0.000000	-0.026853	0.000000	0.000012	-0.000001	0.000000	0.000000
38.758644	11.884092	23.559262	-0.173774	0.341004	2.208088	0.000000	0.036334	0.000000	0.000012	-0.000001	0.000000	0.000000
39.199604	12.191169	23.002004	-0.525251	0.917923	2.238104	0.000000	0.099934	0.000000	0.000012	-0.000000	0.000000	0.000000
39.640564	12.817590	21.952494	-0.900724	1.453077	2.296389	0.000000	0.164673	0.000000	0.000011	-0.000000	0.000000	0.000000
40.081524	13.791976	20.458482	-1.317350	1.922118	2.383607	0.000000	0.231287	0.000000	0.000011	0.000000	0.000000	0.000000
40.527484	15.176419	18.565373	-1.797988	2.304988	2.502224	0.000000	0.300940	0.000000	0.000012	0.000000	0.000000	0.000000
41.076544	16.943096	16.437973	-1.400603	1.592505	2.646925	0.000000	0.225371	0.000000	0.000012	0.000000	0.000000	0.000000
41.625604	18.216154	15.026459	-0.904286	0.993452	2.748974	0.000000	0.145805	0.000000	0.000012	-0.000000	0.000000	0.000000
42.174664	18.905672	14.230292	-0.344095	0.465162	2.806561	0.000000	0.063652	0.000000	0.000011	-0.000001	0.000000	0.000000
42.723724	18.962944	13.992762	0.240402	-0.029997	2.818665	0.000000	-0.019630	0.000000	0.000011	-0.000001	0.000000	0.000000
43.022297	18.853846	13.995216	0.174541	-0.014778	2.815003	0.000000	-0.012266	0.000000	0.000011	-0.000001	0.000000	0.000000
43.502297	18.698879	14.025869	0.148306	-0.049083	2.809116	0.000000	-0.012266	0.000000	0.000010	-0.000001	0.000000	0.000000
43.982297	18.569098	14.089455	0.122072	-0.083388	2.803229	0.000000	-0.012266	0.000000	0.000010	-0.000001	0.000000	0.000000
44.462297	18.464501	14.185974	0.095837	-0.117693	2.797342	0.000000	-0.012266	0.000000	0.000009	-0.000001	0.000000	0.000000
44.942297	18.385090	14.315425	0.069603	-0.151998	2.791455	0.000000	-0.012266	0.000000	0.000009	-0.000001	0.000000	0.000000
45.423547	18.330983	14.478096	-0.047522	-0.114659	2.785570	0.000000	0.001536	0.000000	0.000008	-0.000001	0.000000	0.000000
45.720870	18.364075	14.552464	-0.111757	-0.097445	2.786027	0.000000	0.008815	0.000000	0.000008	-0.000001	0.000000	0.000000
46.269930	18.177585	14.940907	0.449401	-0.614201	2.768293	0.000000	-0.073318	0.000000	0.000008	-0.000001	0.000000	0.000000
46.818990	17.388739	15.917359	0.978815	-1.174705	2.705755	0.000000	-0.154151	0.000000	0.000007	-0.000001	0.000000	0.000000
47.368050	16.053257	17.551372	1.439090	-1.818881	2.599521	0.000000	-0.232249	0.000000	0.000006	-0.000002	0.000000	0.000000
47.917110	14.265473	19.959332	1.797716	-2.592611	2.451476	0.000000	-0.306228	0.000000	0.000005	-0.000002	0.000000	0.000000
48.363070	12.874258	22.100190	1.332933	-2.187766	2.330204	0.000000	-0.237925	0.000000	0.000004	-0.000002	0.000000	0.000000
48.804030	11.878928	23.814295	0.932818	-1.684654	2.239750	0.000000	-0.172730	0.000000	0.000004	-0.000002	0.000000	0.000000
49.244990	11.216412	25.049072	0.575321	-1.104892	2.177583	0.000000	-0.109501	0.000000	0.000003	-0.000001	0.000000	0.000000
49.685950	10.856442	25.748340	0.244108	-0.474858	2.142997	0.000000	-0.047520	0.000000	0.000002	-0.000001	0.000000	0.000000
50.128160	10.782696	25.879998	-0.049626	0.113269	2.135607	0.000000	0.008683	0.000000	0.000002	-0.000001	0.000000	0.000000
50.425482	10.820425	25.816103	-0.077268	0.101633	2.138189	0.000000	0.008683	0.000000	0.000001	-0.000001	0.000000	0.000000
50.758816	10.882267	25.752696	-0.108258	0.088588	2.141083	0.000000	0.008683	0.000000	0.000001	-0.000001	0.000000	0.000000
51.092149	10.964769	25.697986	-0.139248	0.075542	2.143978	0.000000	0.008683	0.000000	0.000000	-0.000001	0.000000	0.000000
51.426732	11.068132	25.652337	-0.080562	-0.145656	2.146862	0.000000	-0.008734	0.000000	-0.000000	-0.000001	0.000000	0.000000
51.724055	11.124077	25.742470	-0.080320	-0.220621	2.144265	0.000000	-0.013992	0.000000	-0.000001	-0.000001	0.000000	0.000000
52.165015	11.340166	25.650637	-0.411584	0.428085	2.151684	0.000000	0.047671	0.000000	-0.000001	-0.000001	0.000000	0.000000
52.605975	11.855561	24.993134	-0.761651	1.057314	2.186388	0.000000	0.109878	0.000000	-0.000002	-0.000001	0.000000	0.000000
53.046935	12.693806	23.799875	-1.146517	1.638435	2.248772	0.000000	0.173336	0.000000	-0.000002	-0.000001	0.000000	0.000000
53.487895	13.893200	22.125155	-1.583764	2.145010	2.339547	0.000000	0.238768	0.000000	-0.000003	-0.000002	0.000000	0.000000
53.933855	15.529102	20.020131	-2.097595	2.555325	2.461251	0.000000	0.307318	0.000000	-0.000004	-0.000002	0.000000	0.000000
54.482915	17.635294	17.651419	-1.715696	1.784263	2.609808	0.000000	0.233015	0.000000	-0.000005	-0.000002	0.000000	0.000000
55.031975	19.252682	16.055087	-1.212608	1.140289	2.716372	0.000000	0.154578	0.000000	-0.000005	-0.000001	0.000000	0.000000
55.581035	20.267021	15.117433	-0.623867	0.577536	2.779051	0.000000	0.073399	0.000000	-0.000006	-0.000001	0.000000	0.000000
56.130095	20.606664	14.771670	0.008940	0.055919	2.796735	0.000000	-0.009082	0.000000	-0.000007	-0.000001	0.000000	0.000000
56.428668	20.637813	14.721318	-0.059423	0.074124	2.796206	0.000000	-0.001774	0.000000	-0.000007	-0.000001	0.000000	0.000000
56.762001	20.682831	14.679492	-0.075631	0.051356	2.795615	0.000000	-0.001774	0.000000	-0.000007	-0.000001	0.000000	0.000000
57.095334	20.738655	14.652843	-0.091840	0.028589	2.795024	0.000000	-0.001774	0.000000	-0.000008	-0.000001	0.000000	0.000000
57.429918	20.805555	14.641358	-0.108110	0.005736	2.794431	0.000000	-0.001774	0.000000	-0.000008	-0.000001	0.000000	0.000000
57.727240	20.874140	14.643985	-0.177111	0.023693	2.793903	0.000000	0.005527	0.000000	-0.000008	-0.000001	0.000000	0.000000
58.276300	20.712528	14.899143	0.469711	-0.491154	2.774300	0.000000	-0.076831	0.000000	-0.000009	-0.000001	0.000000	0.000000
58.825360	19.854723	15.735444	1.083355	-1.040986	2.709785	0.000000	-0.157826	0.000000	-0.000009	-0.000000	0.000000	0.000000
59.374420	18.361317	17.212454	1.620477	-1.664965	2.601502	0.000000	-0.236022	0.000000	-0.000009	-0.000000	0.000000	0.000000
59.923480	16.337796	19.435379	2.043136	-2.407535	2.451374	0.000000	-0.310031	0.000000	-0.000009	0.000000	0.000000	0.000000
60.369440	14.754024	21.411117	1.520817	-2.004066	2.328401	0.000000	-0.241753	0.000000	-0.000009	-0.000000	0.000000	0.000000
60.810400	13.614936	22.966948	1.072182	-1.510790	2.236245	0.000000	-0.176626	0.000000	-0.000009	-0.000000	0.000000	0.000000
61.251360	12.848495	24.055659	0.672532	-0.948774	2.172336	0.000000	-0.113511	0.000000	-0.000009	-0.000001	0.000000	0.000000
61.692320	12.419683	24.627716	0.303608	-0.343589	2.135948	0.000000	-0.051688	0.000000	-0.000010	-0.000001	0.000000	0.000000
62.134530	12.308962	24.656549	-0.021359	0.216704	2.126671	0.000000	0.004330	0.000000	-0.000010	-0.000001	0.000000	0.000000
62.431853	12.328848	24.531440	-0.045525	0.204079	2.127959	0.000000	0.004330	0.000000	-0.000010	-0.000001	0.000000	0.000000
62.765186	12.368229	24.400106	-0.072617	0.189925	2.129403	0.000000	0.004330	0.000000	-0.000011	-0.000001	0.000000	0.000000
63.098520	12.425672	24.278207	-0.099710	0.175771	2.130847	0.000000	0.004330	0.000000	-0.000011	-0.000001	0.000000	0.000000
63.433103	12.501493	24.165340	-0.126905	0.161564	2.132296	0.000000	0.004330	0.000000	-0.000011	-0.000001	0.000000	0.000000
63.730426	12.584142	24.073020	-0.120207	0.089898	2.133584	0.000000	-0.000903	0.000000	-0.000012	-0.000001	0.000000	0.000000
64.171386	12.850428	23.728626	-0.485963	0.688141	2.146725	0.000000	0.060559	0.000000	-0.000012	-0.000001	0.000000	0.000000
64.612346	13.447816	22.868472	-0.873921	1.255075	2.187094	0.000000	0.122711	0.000000	-0.000013	-0.000002	0.000000	0.000000
65.053306	14.403597	21.531696	-1.301805	1.764903	2.255152	0.000000	0.186261	0.000000	-0.000014	-0.000002	0.000000	0.000000
65.494266	15.761440	19.779120	-1.789165	2.194429	2.351674	0.000000	0.251931	0.000000	-0.000015	-0.000002	0.000000	0.000000
65.940226	17.606539	17.665688	-2.362959	2.524864	2.479330	0.000000	0.320873	0.000000	-0.000016	-0.000003	0.000000	0.000000
66.489286	19.971858	15.301441	-1.919484	1.806544	2.635148	0.000000	0.245866	0.000000	-0.000017	-0.000002	0.000000	0.000000
67.038346	21.772401	13.651130	-1.340426	1.216901	2.748522	0.000000	0.166498	0.000000	-0.000018	-0.000002	0.000000	0.000000
67.587406	22.880989	12.597208	-0.666688	0.713934	2.817442	0.000000	0.084176	0.000000	-0.000019	-0.000001	0.000000	0.000000
68.136466	23.219316	12.064604	0.054142	0.261819	2.840685	0.000000	0.000362	0.000000	-0.000019	-0.000000	0.000000	0.000000
68.435038	23.227058	11.897458	-0.019395	0.266470	2.843009	0.000000	0.007785	0.000000	-0.000019	-0.000000	0.000000	0.000000
68.768372	23.244774	11.729814	-0.033752	0.236463	2.845605	0.000000	0.007785	0.000000	-0.000020	-0.000000	0.000000	0.000000
69.101705	23.272061	11.582174	-0.048108	0.206457	2.848200	0.000000	0.007785	0.000000	-0.000020	-0.000000	0.000000	0.000000
69.436288	23.309074	11.454097	-0.062518	0.176338	2.850805	0.000000	0.007785	0.000000	-0.000020	-0.000000	0.000000	0.000000
69.733611	23.350058	11.357197	-0.136344	0.179252	2.853120	0.000000	0.015241	0.000000	-0.000020	-0.000001	0.000000	0.000000
70.282671	23.098752	11.387823	0.591337	-0.235360	2.838308	0.000000	-0.069113	0.000000	-0.000020	0.000000	0.000000	0.000000
