#ParticleID	Turn	x[m]	xp	y[m]	yp	z[m]	dE[GeV]# s	beta_x	beta_y	alpha_x	alpha_y	D_x	D_y	D_px	D_py	orbit_x	orbit_px	orbit_y	orbit_py
0.300000	11.816721	25.007051	-0.011334	-0.027404	2.618048	0.000000	0.000038	0.000000	-0.000002	0.000001	0.000000	0.000000
0.601250	11.831231	25.027194	-0.036831	-0.039459	2.618060	0.000000	0.000038	0.000000	-0.000001	0.000001	0.000000	0.000000
0.898573	11.860614	25.054196	-0.032910	-0.112798	2.618071	0.000000	-0.006382	0.000000	-0.000001	0.000001	0.000000	0.000000
1.339533	12.041802	24.875762	-0.379543	0.515906	2.631549	0.000000	0.067574	0.000000	-0.000000	0.000001	0.000000	0.000000
1.780493	12.535156	24.151134	-0.743517	1.121138	2.677778	0.000000	0.142300	0.000000	-0.000000	0.000001	0.000000	0.000000
2.221453	13.363214	22.913281	-1.141460	1.675358	2.757284	0.000000	0.218647	0.000000	0.000000	0.000001	0.000000	0.000000
2.662413	14.563809	21.218524	-1.591553	2.153351	2.870972	0.000000	0.297484	0.000000	0.000001	0.000001	0.000000	0.000000
3.108373	16.212548	19.119119	-2.118651	2.534501	3.021998	0.000000	0.380199	0.000000	0.000001	0.000001	0.000000	0.000000
3.657433	18.326770	16.761195	-1.709175	1.785323	3.205478	0.000000	0.287160	0.000000	0.000002	0.000001	0.000000	0.000000
4.206493	19.921978	15.151719	-1.178971	1.163310	3.336398	0.000000	0.189028	0.000000	0.000002	0.000001	0.000000	0.000000
4.755553	20.885495	14.176051	-0.565490	0.624157	3.412437	0.000000	0.087544	0.000000	0.000003	0.000001	0.000000	0.000000
5.304613	21.149264	13.764698	0.087934	0.129461	3.432246	0.000000	-0.015494	0.000000	0.000003	0.000001	0.000000	0.000000
5.603185	21.133970	13.672569	0.018544	0.143140	3.430297	0.000000	-0.006526	0.000000	0.000003	0.000001	0.000000	0.000000
5.936519	21.126867	13.585435	0.002766	0.118261	3.428121	0.000000	-0.006526	0.000000	0.000004	0.000001	0.000000	0.000000
6.269852	21.130282	13.514887	-0.013011	0.093382	3.425945	0.000000	-0.006526	0.000000	0.000004	0.000001	0.000000	0.000000
6.604435	21.144287	13.460755	-0.028848	0.068409	3.423761	0.000000	-0.006526	0.000000	0.000004	0.000001	0.000000	0.000000
6.901758	21.165626	13.426674	-0.098221	0.081298	3.421821	0.000000	0.002414	0.000000	0.000004	0.000001	0.000000	0.000000
7.450818	20.912749	13.598165	0.556060	-0.395478	3.394944	0.000000	-0.100171	0.000000	0.000005	0.000001	0.000000	0.000000
7.999878	19.958807	14.305517	1.171064	-0.900422	3.312146	0.000000	-0.200980	0.000000	0.000005	0.000000	0.000000	0.000000
8.548938	18.371182	15.599111	1.703351	-1.469502	3.174898	0.000000	-0.298223	0.000000	0.000005	0.000000	0.000000	0.000000
9.097998	16.262017	17.571089	2.115320	-2.143250	2.985633	0.000000	-0.390177	0.000000	0.000005	0.000000	0.000000	0.000000
9.543958	14.616468	19.328230	1.587703	-1.780227	2.829937	0.000000	-0.308467	0.000000	0.000005	0.000000	0.000000	0.000000
9.984918	13.419561	20.708246	1.136913	-1.337437	2.711162	0.000000	-0.230753	0.000000	0.000006	0.000000	0.000000	0.000000
10.425878	12.595895	21.669330	0.738066	-0.833795	2.626045	0.000000	-0.155668	0.000000	0.000006	0.000001	0.000000	0.000000
10.866838	12.107839	22.167753	0.372938	-0.292216	2.573616	0.000000	-0.082355	0.000000	0.000006	0.000001	0.000000	0.000000
11.309048	11.932958	22.180316	0.054006	0.208209	2.553256	0.000000	-0.016242	0.000000	0.000006	0.000001	0.000000	0.000000
11.606371	11.908273	22.060664	0.029017	0.194223	2.548427	0.000000	-0.016242	0.000000	0.000007	0.000001	0.000000	0.000000
12.086371	11.899781	21.885048	-0.011325	0.171644	2.540630	0.000000	-0.016242	0.000000	0.000007	0.000001	0.000000	0.000000
12.566371	11.930017	21.731108	-0.051667	0.149065	2.532833	0.000000	-0.016242	0.000000	0.000007	0.000001	0.000000	0.000000
13.046371	11.998981	21.598844	-0.092009	0.126486	2.525037	0.000000	-0.016242	0.000000	0.000008	0.000001	0.000000	0.000000
13.526371	12.106674	21.488255	-0.132351	0.103907	2.517240	0.000000	-0.016242	0.000000	0.000008	0.000001	0.000000	0.000000
14.007621	12.253527	21.399139	-0.172798	0.081269	2.509423	0.000000	-0.016242	0.000000	0.000009	0.000001	0.000000	0.000000
14.304943	12.363710	21.354971	-0.167470	0.014919	2.504594	0.000000	-0.022383	0.000000	0.000009	0.000001	0.000000	0.000000
14.745903	12.669973	21.108078	-0.529701	0.542850	2.510357	0.000000	0.048548	0.000000	0.000009	0.000001	0.000000	0.000000
15.186863	13.305118	20.404746	-0.916133	1.046082	2.547490	0.000000	0.120032	0.000000	0.000010	0.000001	0.000000	0.000000
15.627823	14.298165	19.276977	-1.344420	1.501717	2.616415	0.000000	0.192884	0.000000	0.000010	0.000002	0.000000	0.000000
16.068783	15.694482	17.776083	-1.834130	1.889026	2.717919	0.000000	0.267932	0.000000	0.000011	0.000002	0.000000	0.000000
16.514743	17.581518	15.948850	-2.412394	2.191131	2.854851	0.000000	0.346495	0.000000	0.000012	0.000002	0.000000	0.000000
17.063803	20.005108	13.908549	-1.975546	1.546792	3.021362	0.000000	0.259147	0.000000	0.000013	0.000002	0.000000	0.000000
17.612863	21.869057	12.511520	-1.399156	1.012628	3.138580	0.000000	0.167202	0.000000	0.000014	0.000001	0.000000	0.000000
18.161923	23.041705	11.658256	-0.723937	0.550590	3.204424	0.000000	0.072292	0.000000	0.000014	0.000001	0.000000	0.000000
18.710983	23.440221	11.287981	0.002418	0.127770	3.217729	0.000000	-0.023900	0.000000	0.000015	0.000000	0.000000	0.000000
19.009556	23.479161	11.202167	-0.071601	0.130155	3.213103	0.000000	-0.015494	0.000000	0.000015	0.000000	0.000000	0.000000
19.342889	23.531651	11.125483	-0.085871	0.099895	3.207938	0.000000	-0.015494	0.000000	0.000015	0.000000	0.000000	0.000000
19.676223	23.593655	11.068973	-0.100140	0.069635	3.202773	0.000000	-0.015494	0.000000	0.000015	0.000000	0.000000	0.000000
20.010806	23.665751	11.032402	-0.231717	0.093922	3.197609	0.000000	0.000349	0.000000	0.000015	0.000000	0.000000	0.000000
20.308129	23.807477	10.984635	-0.307151	0.095432	3.197713	0.000000	0.008703	0.000000	0.000015	0.000000	0.000000	0.000000
20.857189	23.734148	11.102060	0.439915	-0.310559	3.176266	0.000000	-0.086709	0.000000	0.000016	-0.000000	0.000000	0.000000
21.406249	22.852727	11.674769	1.155908	-0.738671	3.102778	0.000000	-0.180583	0.000000	0.000015	-0.000001	0.000000	0.000000
21.955309	21.225475	12.743557	1.790253	-1.219396	2.978553	0.000000	-0.271254	0.000000	0.000015	-0.000001	0.000000	0.000000
22.504369	18.967332	14.384549	2.298143	-1.786976	2.805794	0.000000	-0.357113	0.000000	0.000014	-0.000001	0.000000	0.000000
22.950329	17.187725	15.857835	1.706452	-1.502714	2.663833	0.000000	-0.279889	0.000000	0.000014	-0.000001	0.000000	0.000000
23.391289	15.912073	17.032457	1.197419	-1.150934	2.556739	0.000000	-0.206307	0.000000	0.000013	-0.000001	0.000000	0.000000
23.832249	15.059618	17.872473	0.743094	-0.746787	2.481543	0.000000	-0.135075	0.000000	0.000013	-0.000000	0.000000	0.000000
24.273209	14.591413	18.339662	0.322718	-0.308662	2.437389	0.000000	-0.065381	0.000000	0.000013	-0.000000	0.000000	0.000000
24.715418	14.486187	18.412521	-0.047480	0.098290	2.423771	0.000000	-0.002375	0.000000	0.000013	0.000000	0.000000	0.000000
25.012741	14.520537	18.358921	-0.068051	0.081986	2.423065	0.000000	-0.002375	0.000000	0.000013	0.000000	0.000000	0.000000
25.346075	14.573591	18.310357	-0.091113	0.063707	2.422273	0.000000	-0.002375	0.000000	0.000013	0.000000	0.000000	0.000000
25.679408	14.642021	18.273978	-0.114175	0.045429	2.421481	0.000000	-0.002375	0.000000	0.000013	0.000000	0.000000	0.000000
26.013991	14.725870	18.250088	-0.017858	-0.120972	2.420662	0.000000	-0.022013	0.000000	0.000013	0.000000	0.000000	0.000000
26.311314	14.742494	18.326938	-0.001907	-0.182439	2.414117	0.000000	-0.027932	0.000000	0.000013	0.000000	0.000000	0.000000
26.752274	14.925814	18.289068	-0.415399	0.267993	2.416914	0.000000	0.040629	0.000000	0.000013	0.000000	0.000000	0.000000
27.193234	15.480760	17.857833	-0.847869	0.706232	2.450016	0.000000	0.109652	0.000000	0.000014	0.000001	0.000000	0.000000
27.634194	16.432686	17.052853	-1.319077	1.112337	2.513801	0.000000	0.179925	0.000000	0.000014	0.000001	0.000000	0.000000
28.075154	17.825082	15.910755	-1.850549	1.467833	2.608995	0.000000	0.252246	0.000000	0.000015	0.000002	0.000000	0.000000
28.521114	19.745755	14.466300	-2.471533	1.757455	2.738286	0.000000	0.327884	0.000000	0.000015	0.000002	0.000000	0.000000
29.070174	22.186945	12.856871	-1.948272	1.191090	2.895643	0.000000	0.244462	0.000000	0.000016	0.000001	0.000000	0.000000
29.619234	23.974101	11.819422	-1.287396	0.709564	3.005936	0.000000	0.156703	0.000000	0.000017	0.000001	0.000000	0.000000
30.168294	24.980986	11.280056	-0.535583	0.278578	3.067210	0.000000	0.066165	0.000000	0.000017	0.000000	0.000000	0.000000
30.717354	25.136480	11.200357	0.254060	-0.132565	3.078378	0.000000	-0.025547	0.000000	0.000017	-0.000000	0.000000	0.000000
31.015927	25.027655	11.270089	0.176093	-0.130247	3.073151	0.000000	-0.017505	0.000000	0.000017	-0.000000	0.000000	0.000000
31.349260	24.914837	11.366946	0.162361	-0.160325	3.067316	0.000000	-0.017505	0.000000	0.000017	-0.000000	0.000000	0.000000
31.682593	24.811174	11.483855	0.148629	-0.190404	3.061481	0.000000	-0.017505	0.000000	0.000017	-0.000000	0.000000	0.000000
32.017177	24.716328	11.621369	0.134846	-0.220595	3.055624	0.000000	-0.017505	0.000000	0.000017	-0.000000	0.000000	0.000000
32.314499	24.639784	11.760521	0.058228	-0.216700	3.050420	0.000000	-0.009536	0.000000	0.000017	-0.000000	0.000000	0.000000
32.863559	24.153693	12.237716	0.821845	-0.657541	3.020295	0.000000	-0.100035	0.000000	0.000017	-0.000001	0.000000	0.000000
33.412619	22.856128	13.221729	1.527411	-1.145216	2.940896	0.000000	-0.188759	0.000000	0.000016	-0.000001	0.000000	0.000000
33.961679	20.838744	14.782651	2.125089	-1.714463	2.813631	0.000000	-0.274136	0.000000	0.000015	-0.000002	0.000000	0.000000
34.510739	18.244037	17.031662	2.572660	-2.405827	2.640757	0.000000	-0.354650	0.000000	0.000014	-0.000002	0.000000	0.000000
34.956699	16.226563	19.043311	1.967437	-2.086166	2.498944	0.000000	-0.281704	0.000000	0.000013	-0.000002	0.000000	0.000000
35.397659	14.722180	20.706990	1.457113	-1.672333	2.390109	0.000000	-0.212396	0.000000	0.000012	-0.000002	0.000000	0.000000
35.838619	13.636917	21.970626	1.013360	-1.182410	2.311274	0.000000	-0.145506	0.000000	0.000012	-0.000001	0.000000	0.000000
36.279579	12.921192	22.776724	0.615904	-0.638688	2.261542	0.000000	-0.080274	0.000000	0.000011	-0.000001	0.000000	0.000000
36.721789	12.541611	23.088915	0.277235	-0.122575	2.240319	0.000000	-0.021449	0.000000	0.000011	-0.000001	0.000000	0.000000
37.019112	12.384345	23.165690	0.251706	-0.135645	2.233942	0.000000	-0.021449	0.000000	0.000011	-0.000001	0.000000	0.000000
37.352445	12.226082	23.261005	0.223085	-0.150299	2.226793	0.000000	-0.021449	0.000000	0.000011	-0.000001	0.000000	0.000000
37.685779	12.086899	23.366089	0.194464	-0.164953	2.219644	0.000000	-0.021449	0.000000	0.000010	-0.000001	0.000000	0.000000
38.020362	11.966383	23.481391	0.165735	-0.179662	2.212468	0.000000	-0.021449	0.000000	0.000010	-0.000001	0.000000	0.000000
38.317684	11.875419	23.592112	0.169326	-0.250582	2.206091	0.000000	-0.026858	0.000000	0.000010	-0.000001	0.000000	0.000000
38.758644	11.877498	23.551797	-0.174059	0.341660	2.208177	0.000000	0.036330	0.000000	0.000010	-0.000000	0.000000	0.000000
39.199604	12.184764	22.994057	-0.525395	0.918358	2.238192	0.000000	0.099933	0.000000	0.000010	-0.000000	0.000000	0.000000
39.640564	12.811253	21.944269	-0.900735	1.453270	2.296477	0.000000	0.164674	0.000000	0.000010	0.000000	0.000000	0.000000
40.081524	13.785590	20.450198	-1.317228	1.922061	2.383696	0.000000	0.231290	0.000000	0.000010	0.000000	0.000000	0.000000
40.527484	15.169863	18.557251	-1.797727	2.304681	2.502315	0.000000	0.300946	0.000000	0.000010	0.000001	0.000000	0.000000
41.076544	16.936390	16.430069	-1.400593	1.592412	2.647018	0.000000	0.225374	0.000000	0.000010	0.000000	0.000000	0.000000
41.625604	18.209576	15.018544	-0.904527	0.993567	2.749068	0.000000	0.145805	0.000000	0.000010	-0.000000	0.000000	0.000000
42.174664	18.899490	14.222134	-0.344570	0.465491	2.806654	0.000000	0.063649	0.000000	0.000010	-0.000000	0.000000	0.000000
42.723724	18.957399	13.984115	0.239725	-0.029429	2.818755	0.000000	-0.019636	0.000000	0.000010	-0.000001	0.000000	0.000000
43.022297	18.848696	13.986247	0.173878	-0.014246	2.815091	0.000000	-0.012271	0.000000	0.000009	-0.000001	0.000000	0.000000
43.502297	18.694367	14.016399	0.147642	-0.048572	2.809201	0.000000	-0.012271	0.000000	0.000009	-0.000001	0.000000	0.000000
43.982297	18.565224	14.079505	0.121406	-0.082898	2.803312	0.000000	-0.012271	0.000000	0.000009	-0.000001	0.000000	0.000000
44.462297	18.461267	14.175564	0.095170	-0.117225	2.797422	0.000000	-0.012271	0.000000	0.000008	-0.000001	0.000000	0.000000
44.942297	18.382497	14.304576	0.068934	-0.151551	2.791532	0.000000	-0.012271	0.000000	0.000008	-0.000001	0.000000	0.000000
45.423547	18.329034	14.466828	-0.048182	-0.114289	2.785644	0.000000	0.001530	0.000000	0.000008	-0.000001	0.000000	0.000000
45.720870	18.362520	14.540980	-0.112416	-0.097119	2.786099	0.000000	0.008809	0.000000	0.000007	-0.000001	0.000000	0.000000
46.269930	18.176776	14.928872	0.448708	-0.613517	2.768361	0.000000	-0.073326	0.000000	0.000007	-0.000001	0.000000	0.000000
46.818990	17.388686	15.904357	0.978138	-1.173615	2.705818	0.000000	-0.154160	0.000000	0.000006	-0.000001	0.000000	0.000000
47.368050	16.053918	17.536915	1.438477	-1.817306	2.599578	0.000000	-0.232261	0.000000	0.000006	-0.000001	0.000000	0.000000
47.917110	14.266752	19.942831	1.797209	-2.590440	2.451526	0.000000	-0.306241	0.000000	0.000005	-0.000001	0.000000	0.000000
48.363070	12.875977	22.081908	1.332450	-2.185964	2.330249	0.000000	-0.237937	0.000000	0.000004	-0.000001	0.000000	0.000000
48.804030	11.881070	23.794617	0.932337	-1.683301	2.239789	0.000000	-0.172741	0.000000	0.000004	-0.000001	0.000000	0.000000
49.244990	11.218987	25.028422	0.574819	-1.104050	2.177618	0.000000	-0.109512	0.000000	0.000003	-0.000001	0.000000	0.000000
49.685950	10.859477	25.727187	0.243563	-0.474565	2.143027	0.000000	-0.047530	0.000000	0.000003	-0.000001	0.000000	0.000000
50.128160	10.786241	25.858836	-0.050231	0.113051	2.135633	0.000000	0.008674	0.000000	0.000002	-0.000001	0.000000	0.000000
50.425482	10.824327	25.795073	-0.077866	0.101406	2.138212	0.000000	0.008674	0.000000	0.000002	-0.000001	0.000000	0.000000
50.758816	10.886565	25.731820	-0.108847	0.088351	2.141104	0.000000	0.008674	0.000000	0.000002	-0.000001	0.000000	0.000000
51.092149	10.969457	25.677271	-0.139829	0.075296	2.143995	0.000000	0.008674	0.000000	0.000001	-0.000001	0.000000	0.000000
51.426732	11.073206	25.631790	-0.081094	-0.145746	2.146876	0.000000	-0.008743	0.000000	0.000001	-0.000001	0.000000	0.000000
51.724055	11.129463	25.721980	-0.080828	-0.220670	2.144277	0.000000	-0.014001	0.000000	0.000001	-0.000001	0.000000	0.000000
52.165015	11.346059	25.630429	-0.412227	0.427496	2.151692	0.000000	0.047663	0.000000	0.000000	-0.000001	0.000000	0.000000
52.605975	11.862092	24.973674	-0.762460	1.056212	2.186392	0.000000	0.109869	0.000000	-0.000000	-0.000001	0.000000	0.000000
53.046935	12.701137	23.781597	-1.147528	1.636870	2.248773	0.000000	0.173328	0.000000	-0.000001	-0.000001	0.000000	0.000000
53.487895	13.901528	22.108435	-1.585022	2.143053	2.339544	0.000000	0.238760	0.000000	-0.000001	-0.000001	0.000000	0.000000
53.933855	15.538685	20.005299	-2.099162	2.553065	2.461244	0.000000	0.307310	0.000000	-0.000002	-0.000001	0.000000	0.000000
54.482915	17.646472	17.638744	-1.717014	1.782571	2.609796	0.000000	0.233007	0.000000	-0.000002	-0.000001	0.000000	0.000000
55.031975	19.265128	16.044014	-1.213584	1.139046	2.716355	0.000000	0.154570	0.000000	-0.000003	-0.000001	0.000000	0.000000
55.581035	20.280319	15.107521	-0.624433	0.576653	2.779030	0.000000	0.073392	0.000000	-0.000003	-0.000001	0.000000	0.000000
56.130095	20.620338	14.762559	0.008824	0.055333	2.796710	0.000000	-0.009088	0.000000	-0.000004	-0.000001	0.000000	0.000000
56.428668	20.651574	14.712575	-0.059563	0.073503	2.796179	0.000000	-0.001780	0.000000	-0.000004	-0.000001	0.000000	0.000000
56.762001	20.696682	14.671165	-0.075761	0.050724	2.795586	0.000000	-0.001780	0.000000	-0.000004	-0.000001	0.000000	0.000000
57.095334	20.752589	14.644942	-0.091959	0.027946	2.794992	0.000000	-0.001780	0.000000	-0.000004	-0.000001	0.000000	0.000000
57.429918	20.819565	14.633892	-0.108218	0.005081	2.794397	0.000000	-0.001780	0.000000	-0.000005	-0.000001	0.000000	0.000000
57.727240	20.888212	14.636911	-0.177246	0.023009	2.793868	0.000000	0.005520	0.000000	-0.000005	-0.000001	0.000000	0.000000
58.276300	20.726489	14.892713	0.470048	-0.491650	2.774261	0.000000	-0.076837	0.000000	-0.000005	-0.000001	0.000000	0.000000
58.825360	19.868065	15.729471	1.084140	-1.041327	2.709743	0.000000	-0.157830	0.000000	-0.000006	-0.000000	0.000000	0.000000
59.374420	18.373575	17.206783	1.621654	-1.665176	2.601459	0.000000	-0.236025	0.000000	-0.000006	-0.000000	0.000000	0.000000
59.923480	16.348582	19.429877	2.044622	-2.407632	2.451329	0.000000	-0.310032	0.000000	-0.000006	-0.000000	0.000000	0.000000
60.369440	14.763632	21.405788	1.521982	-2.004358	2.328356	0.000000	-0.241756	0.000000	-0.000006	-0.000000	0.000000	0.000000
60.810400	13.623637	22.961957	1.073082	-1.511261	2.236198	0.000000	-0.176630	0.000000	-0.000006	-0.000000	0.000000	0.000000
61.251360	12.856503	24.051157	0.673208	-0.949403	2.172287	0.000000	-0.113516	0.000000	-0.000006	-0.000001	0.000000	0.000000
61.692320	12.427182	24.623828	0.304091	-0.344348	2.135897	0.000000	-0.051694	0.000000	-0.000006	-0.000001	0.000000	0.000000
62.134530	12.316111	24.653377	-0.021029	0.215859	2.126617	0.000000	0.004323	0.000000	-0.000007	-0.000001	0.000000	0.000000
62.431853	12.335797	24.528770	-0.045181	0.203237	2.127902	0.000000	0.004323	0.000000	-0.000007	-0.000001	0.000000	0.000000
62.765186	12.374943	24.397995	-0.072258	0.189086	2.129343	0.000000	0.004323	0.000000	-0.000007	-0.000001	0.000000	0.000000
63.098520	12.432141	24.276655	-0.099335	0.174936	2.130785	0.000000	0.004323	0.000000	-0.000008	-0.000001	0.000000	0.000000
63.433103	12.507705	24.164346	-0.126513	0.160732	2.132231	0.000000	0.004323	0.000000	-0.000008	-0.000001	0.000000	0.000000
63.730426	12.590117	24.072521	-0.119788	0.089072	2.133517	0.000000	-0.000910	0.000000	-0.000008	-0.000001	0.000000	0.000000
64.171386	12.856089	23.728854	-0.485668	0.687323	2.146654	0.000000	0.060551	0.000000	-0.000009	-0.000001	0.000000	0.000000
64.612346	13.453267	22.869404	-0.873738	1.254302	2.187019	0.000000	0.122700	0.000000	-0.000009	-0.000001	0.000000	0.000000
65.053306	14.408934	21.533277	-1.301726	1.764211	2.255072	0.000000	0.186248	0.000000	-0.000010	-0.000001	0.000000	0.000000
65.494266	15.766750	19.781264	-1.789186	2.193850	2.351587	0.000000	0.251916	0.000000	-0.000010	-0.000002	0.000000	0.000000
65.940226	17.611914	17.668288	-2.363080	2.524424	2.479236	0.000000	0.320856	0.000000	-0.000011	-0.000002	0.000000	0.000000
66.489286	19.977245	15.304519	-1.919385	1.806108	2.635045	0.000000	0.245852	0.000000	-0.000012	-0.000002	0.000000	0.000000
67.038346	21.777562	13.654699	-1.340114	1.216437	2.748412	0.000000	0.166487	0.000000	-0.000013	-0.000001	0.000000	0.000000
67.587406	22.885700	12.601316	-0.666184	0.713409	2.817327	0.000000	0.084169	0.000000	-0.000014	-0.000001	0.000000	0.000000
68.136466	23.223384	12.069339	0.054801	0.261197	2.840567	0.000000	0.000359	0.000000	-0.000014	-0.000000	0.000000	0.000000
68.435038	23.230737	11.902553	-0.018741	0.265877	2.842891	0.000000	0.007781	0.000000	-0.000014	-0.000000	0.000000	0.000000
68.768372	23.248016	11.735296	-0.033095	0.235893	2.845484	0.000000	0.007781	0.000000	-0.000014	-0.000000	0.000000	0.000000
69.101705	23.274864	11.588029	-0.047449	0.205908	2.848078	0.000000	0.007781	0.000000	-0.000014	-0.000000	0.000000	0.000000
69.436288	23.311436	11.460313	-0.061857	0.175810	2.850682	0.000000	0.007781	0.000000	-0.000014	-0.000000	0.000000	0.000000
69.733611	23.352025	11.363720	-0.135682	0.178760	2.852996	0.000000	0.015237	0.000000	-0.000015	-0.000000	0.000000	0.000000
70.282671	23.099963	11.394989	0.592044	-0.236045	2.838183	0.000000	-0.069113	0.000000	-0.000015	0.000000	0.000000	0.000000
