#ParticleID	Turn	x[m]	xp	y[m]	yp	z[m]	dE[GeV]# s	beta_x	beta_y	alpha_x	alpha_y	D_x	D_y	D_px	D_py	orbit_x	orbit_px	orbit_y	orbit_py
0.300000	11.832023	24.947441	-0.013383	-0.027767	2.618287	0.000000	-0.000055	0.000000	0.000001	0.000000	0.000000	0.000000
0.601250	11.847757	24.967811	-0.038848	-0.039851	2.618270	0.000000	-0.000055	0.000000	0.000001	0.000000	0.000000	0.000000
0.898573	11.878330	24.995055	-0.034852	-0.113073	2.618253	0.000000	-0.006476	0.000000	0.000001	0.000000	0.000000	0.000000
1.339533	12.061425	24.817554	-0.381940	0.514075	2.631692	0.000000	0.067484	0.000000	0.000001	0.000000	0.000000	0.000000
1.780493	12.557131	24.095198	-0.746477	1.117833	2.677882	0.000000	0.142213	0.000000	0.000001	0.000000	0.000000	0.000000
2.221453	13.388097	22.860856	-1.145119	1.670731	2.757350	0.000000	0.218562	0.000000	0.000001	0.000000	0.000000	0.000000
2.662413	14.592287	21.170688	-1.596078	2.147612	2.871001	0.000000	0.297400	0.000000	0.000001	0.000000	0.000000	0.000000
3.108373	16.245527	19.076805	-2.124258	2.527908	3.021991	0.000000	0.380115	0.000000	0.000002	0.000000	0.000000	0.000000
3.657433	18.365482	16.725184	-1.713950	1.780369	3.205426	0.000000	0.287078	0.000000	0.000002	0.000000	0.000000	0.000000
4.206493	19.965321	15.120413	-1.182578	1.159643	3.336302	0.000000	0.188949	0.000000	0.000002	0.000000	0.000000	0.000000
4.755553	20.932037	14.148190	-0.567674	0.621515	3.412298	0.000000	0.087468	0.000000	0.000002	0.000000	0.000000	0.000000
5.304613	21.197347	13.739264	0.087327	0.127656	3.432067	0.000000	-0.015565	0.000000	0.000002	0.000000	0.000000	0.000000
5.603185	21.182482	13.648261	0.017843	0.141241	3.430097	0.000000	-0.006598	0.000000	0.000002	0.000000	0.000000	0.000000
5.936519	21.175833	13.562404	0.002102	0.116330	3.427898	0.000000	-0.006598	0.000000	0.000002	0.000000	0.000000	0.000000
6.269852	21.179679	13.493154	-0.013639	0.091420	3.425698	0.000000	-0.006598	0.000000	0.000002	0.000000	0.000000	0.000000
6.604435	21.194092	13.440345	-0.029439	0.066416	3.423491	0.000000	-0.006598	0.000000	0.000002	0.000000	0.000000	0.000000
6.901758	21.215773	13.407457	-0.098912	0.079228	3.421529	0.000000	0.002342	0.000000	0.000002	0.000000	0.000000	0.000000
7.450818	20.962727	13.580931	0.557055	-0.397040	3.394616	0.000000	-0.100233	0.000000	0.000002	-0.000000	0.000000	0.000000
7.999878	20.006795	14.289772	1.173674	-0.901589	3.311788	0.000000	-0.201030	0.000000	0.000002	-0.000000	0.000000	0.000000
8.548938	18.415497	15.584470	1.707391	-1.470356	3.174515	0.000000	-0.298262	0.000000	0.000002	-0.000000	0.000000	0.000000
9.097998	16.301237	17.557242	2.120506	-2.143852	2.985232	0.000000	-0.390203	0.000000	0.000002	-0.000000	0.000000	0.000000
9.543958	14.651588	19.315155	1.591742	-1.781349	2.829523	0.000000	-0.308503	0.000000	0.000002	-0.000000	0.000000	0.000000
9.984918	13.451552	20.696371	1.139998	-1.339024	2.710730	0.000000	-0.230800	0.000000	0.000002	-0.000000	0.000000	0.000000
10.425878	12.625533	21.659034	0.740338	-0.835775	2.625590	0.000000	-0.155727	0.000000	0.000002	-0.000000	0.000000	0.000000
10.866838	12.135791	22.159343	0.374502	-0.294499	2.573132	0.000000	-0.082426	0.000000	0.000001	-0.000000	0.000000	0.000000
11.309048	11.959815	22.174021	0.054999	0.205740	2.552738	0.000000	-0.016325	0.000000	0.000001	-0.000000	0.000000	0.000000
11.606371	11.934524	22.055834	0.030064	0.191764	2.547885	0.000000	-0.016325	0.000000	0.000001	-0.000000	0.000000	0.000000
12.086371	11.924985	21.882571	-0.010192	0.169201	2.540049	0.000000	-0.016325	0.000000	0.000001	-0.000000	0.000000	0.000000
12.566371	11.954092	21.730968	-0.050448	0.146638	2.532213	0.000000	-0.016325	0.000000	0.000001	-0.000000	0.000000	0.000000
13.046371	12.021845	21.601026	-0.090704	0.124075	2.524377	0.000000	-0.016325	0.000000	0.000001	-0.000000	0.000000	0.000000
13.526371	12.128243	21.492745	-0.130959	0.101511	2.516541	0.000000	-0.016325	0.000000	0.000001	-0.000000	0.000000	0.000000
14.007621	12.273715	21.405927	-0.171320	0.078889	2.508684	0.000000	-0.016325	0.000000	0.000001	-0.000000	0.000000	0.000000
14.304943	12.383004	21.363171	-0.165889	0.012525	2.503831	0.000000	-0.022465	0.000000	0.000001	-0.000000	0.000000	0.000000
14.745903	12.688048	21.118276	-0.528509	0.540730	2.509553	0.000000	0.048446	0.000000	0.000001	0.000000	0.000000	0.000000
15.186863	13.322293	20.416657	-0.915275	1.044333	2.546637	0.000000	0.119909	0.000000	0.000001	0.000000	0.000000	0.000000
15.627823	14.314716	19.290237	-1.343858	1.500419	2.615504	0.000000	0.192738	0.000000	0.000002	0.000000	0.000000	0.000000
16.068783	15.710657	17.790267	-1.833838	1.888237	2.716939	0.000000	0.267762	0.000000	0.000002	0.000000	0.000000	0.000000
16.514743	17.597547	15.963495	-2.412358	2.190892	2.853790	0.000000	0.346298	0.000000	0.000002	0.000000	0.000000	0.000000
17.063803	20.020706	13.923600	-1.974803	1.546288	3.020204	0.000000	0.258986	0.000000	0.000002	0.000000	0.000000	0.000000
17.612863	21.883470	12.527285	-1.397757	1.011823	3.137344	0.000000	0.167080	0.000000	0.000002	0.000000	0.000000	0.000000
18.161923	23.054264	11.675095	-0.721981	0.549429	3.203134	0.000000	0.072211	0.000000	0.000002	0.000000	0.000000	0.000000
18.710983	23.450389	11.306328	0.004792	0.126168	3.216406	0.000000	-0.023939	0.000000	0.000002	-0.000000	0.000000	0.000000
19.009556	23.487928	11.221423	-0.069251	0.128661	3.211767	0.000000	-0.015535	0.000000	0.000002	-0.000000	0.000000	0.000000
19.342889	23.538849	11.145714	-0.083511	0.098465	3.206589	0.000000	-0.015535	0.000000	0.000002	-0.000000	0.000000	0.000000
19.676223	23.599276	11.090136	-0.097771	0.068268	3.201411	0.000000	-0.015535	0.000000	0.000002	-0.000000	0.000000	0.000000
20.010806	23.669783	11.054458	-0.229357	0.092728	3.196233	0.000000	0.000301	0.000000	0.000002	-0.000000	0.000000	0.000000
20.308129	23.810101	11.007383	-0.304790	0.094361	3.196322	0.000000	0.008652	0.000000	0.000002	-0.000000	0.000000	0.000000
20.857189	23.734143	11.126340	0.442312	-0.312295	3.174861	0.000000	-0.086714	0.000000	0.000002	-0.000000	0.000000	0.000000
21.406249	22.850148	11.701374	1.158172	-0.741194	3.101382	0.000000	-0.180543	0.000000	0.000002	-0.000000	0.000000	0.000000
21.955309	21.220557	12.773445	1.792224	-1.222887	2.977191	0.000000	-0.271169	0.000000	0.000002	-0.000000	0.000000	0.000000
22.504369	18.960477	14.418913	2.299682	-1.791684	2.804490	0.000000	-0.356985	0.000000	0.000001	-0.000000	0.000000	0.000000
22.950329	17.179505	15.896062	1.707984	-1.506634	2.662579	0.000000	-0.279794	0.000000	0.000001	-0.000000	0.000000	0.000000
23.391289	15.902479	17.073729	1.199017	-1.153891	2.555519	0.000000	-0.206244	0.000000	0.000001	-0.000000	0.000000	0.000000
23.832249	15.048559	17.915877	0.744830	-0.748647	2.480344	0.000000	-0.135043	0.000000	0.000001	-0.000000	0.000000	0.000000
24.273209	14.578735	18.384190	0.324671	-0.309340	2.436197	0.000000	-0.065380	0.000000	0.000001	-0.000000	0.000000	0.000000
24.715418	14.471652	18.457112	-0.045252	0.098710	2.422572	0.000000	-0.002402	0.000000	0.000001	-0.000000	0.000000	0.000000
25.012741	14.504682	18.403250	-0.065839	0.082445	2.421858	0.000000	-0.002402	0.000000	0.000001	-0.000000	0.000000	0.000000
25.346075	14.556268	18.354366	-0.088920	0.064209	2.421057	0.000000	-0.002402	0.000000	0.000001	-0.000000	0.000000	0.000000
25.679408	14.623242	18.317639	-0.112001	0.045973	2.420256	0.000000	-0.002402	0.000000	0.000001	-0.000000	0.000000	0.000000
26.013991	14.705642	18.293370	-0.015866	-0.120736	2.419428	0.000000	-0.022030	0.000000	0.000001	-0.000000	0.000000	0.000000
26.311314	14.721090	18.370068	0.000011	-0.182275	2.412878	0.000000	-0.027947	0.000000	0.000001	-0.000000	0.000000	0.000000
26.752274	14.902480	18.331538	-0.412925	0.269321	2.415661	0.000000	0.040581	0.000000	0.000001	-0.000000	0.000000	0.000000
27.193234	15.454957	17.898638	-0.844725	0.708664	2.448735	0.000000	0.109572	0.000000	0.000001	-0.000000	0.000000	0.000000
27.634194	16.403763	17.091066	-1.315119	1.115762	2.512478	0.000000	0.179811	0.000000	0.000001	-0.000000	0.000000	0.000000
28.075154	17.792245	15.945566	-1.845597	1.472094	2.607615	0.000000	0.252098	0.000000	0.000001	0.000000	0.000000	0.000000
28.521114	19.707968	14.497005	-2.465349	1.762362	2.736832	0.000000	0.327699	0.000000	0.000001	0.000000	0.000000	0.000000
29.070174	22.142858	12.882851	-1.943050	1.194840	2.894101	0.000000	0.244325	0.000000	0.000001	-0.000000	0.000000	0.000000
29.619234	23.924978	11.841793	-1.283503	0.712425	3.004334	0.000000	0.156617	0.000000	0.000001	-0.000000	0.000000	0.000000
30.168294	24.928449	11.299678	-0.533296	0.280754	3.065575	0.000000	0.066131	0.000000	0.000001	-0.000000	0.000000	0.000000
30.717354	25.082392	11.217892	0.254581	-0.130919	3.076739	0.000000	-0.025527	0.000000	0.000001	-0.000000	0.000000	0.000000
31.015927	24.973185	11.286596	0.176717	-0.128499	3.071517	0.000000	-0.017488	0.000000	0.000001	-0.000000	0.000000	0.000000
31.349260	24.859962	11.382269	0.162952	-0.158521	3.065688	0.000000	-0.017488	0.000000	0.000001	-0.000000	0.000000	0.000000
31.682593	24.755915	11.497957	0.149188	-0.188542	3.059858	0.000000	-0.017488	0.000000	0.000001	-0.000000	0.000000	0.000000
32.017177	24.660706	11.634205	0.135372	-0.218676	3.054007	0.000000	-0.017488	0.000000	0.000001	-0.000000	0.000000	0.000000
32.314499	24.583859	11.772201	0.058861	-0.214695	3.048807	0.000000	-0.009523	0.000000	0.000001	-0.000000	0.000000	0.000000
32.863559	24.098097	12.247326	0.820616	-0.655755	3.018704	0.000000	-0.099969	0.000000	0.000001	-0.000000	0.000000	0.000000
33.412619	22.802872	13.229440	1.524406	-1.143523	2.939355	0.000000	-0.188643	0.000000	0.000001	-0.000000	0.000000	0.000000
33.961679	20.789671	14.788498	2.120520	-1.712741	2.812166	0.000000	-0.273971	0.000000	0.000001	-0.000000	0.000000	0.000000
34.510739	18.200697	17.035547	2.566851	-2.403954	2.639394	0.000000	-0.354439	0.000000	0.000000	-0.000000	0.000000	0.000000
34.956699	16.187813	19.045371	1.962918	-2.083963	2.497666	0.000000	-0.281528	0.000000	0.000000	-0.000000	0.000000	0.000000
35.397659	14.686930	20.706998	1.453666	-1.669902	2.388902	0.000000	-0.212251	0.000000	0.000000	-0.000000	0.000000	0.000000
35.838619	13.604294	21.968431	1.010828	-1.179863	2.310123	0.000000	-0.145392	0.000000	0.000000	-0.000000	0.000000	0.000000
36.279579	12.890441	22.772274	0.614172	-0.636140	2.260435	0.000000	-0.080189	0.000000	0.000000	-0.000000	0.000000	0.000000
36.721789	12.512069	23.082254	0.276154	-0.120132	2.239243	0.000000	-0.021390	0.000000	0.000000	-0.000000	0.000000	0.000000
37.019112	12.355459	23.157575	0.250579	-0.133199	2.232883	0.000000	-0.021390	0.000000	0.000000	-0.000000	0.000000	0.000000
37.352445	12.197965	23.251258	0.221906	-0.147848	2.225753	0.000000	-0.021390	0.000000	0.000000	-0.000000	0.000000	0.000000
37.685779	12.059585	23.354707	0.193233	-0.162498	2.218623	0.000000	-0.021390	0.000000	0.000000	-0.000000	0.000000	0.000000
38.020362	11.939909	23.468365	0.164453	-0.177202	2.211466	0.000000	-0.021390	0.000000	-0.000000	-0.000000	0.000000	0.000000
38.317684	11.849721	23.577622	0.167937	-0.248089	2.205107	0.000000	-0.026798	0.000000	-0.000000	-0.000000	0.000000	0.000000
38.758644	11.852770	23.535285	-0.174876	0.343736	2.207214	0.000000	0.036366	0.000000	-0.000000	-0.000000	0.000000	0.000000
39.199604	12.160519	22.975934	-0.525680	0.919920	2.237239	0.000000	0.099944	0.000000	-0.000000	-0.000000	0.000000	0.000000
39.640564	12.787031	21.925021	-0.900500	1.454250	2.295524	0.000000	0.164660	0.000000	-0.000000	-0.000000	0.000000	0.000000
40.081524	13.760927	20.430361	-1.316461	1.922411	2.382732	0.000000	0.231252	0.000000	-0.000000	-0.000000	0.000000	0.000000
40.527484	15.144265	18.537392	-1.796391	2.304383	2.501327	0.000000	0.300882	0.000000	-0.000000	-0.000000	0.000000	0.000000
41.076544	16.909840	16.410276	-1.400206	1.592590	2.646005	0.000000	0.225343	0.000000	-0.000000	-0.000000	0.000000	0.000000
41.625604	18.183138	14.998290	-0.905117	0.994233	2.748047	0.000000	0.145806	0.000000	-0.000001	-0.000000	0.000000	0.000000
42.174664	18.874220	14.200860	-0.346096	0.466694	2.805642	0.000000	0.063683	0.000000	-0.000001	-0.000000	0.000000	0.000000
42.723724	18.934271	13.961189	0.237372	-0.027604	2.817771	0.000000	-0.019569	0.000000	-0.000001	-0.000000	0.000000	0.000000
43.022297	18.826941	13.962275	0.171575	-0.012513	2.814127	0.000000	-0.012206	0.000000	-0.000001	-0.000000	0.000000	0.000000
43.502297	18.674827	13.990792	0.145329	-0.046897	2.808268	0.000000	-0.012206	0.000000	-0.000001	-0.000000	0.000000	0.000000
43.982297	18.547910	14.052318	0.119083	-0.081281	2.802409	0.000000	-0.012206	0.000000	-0.000001	-0.000000	0.000000	0.000000
44.462297	18.446188	14.146852	0.092837	-0.115665	2.796549	0.000000	-0.012206	0.000000	-0.000001	-0.000000	0.000000	0.000000
44.942297	18.369663	14.274394	0.066591	-0.150048	2.790690	0.000000	-0.012206	0.000000	-0.000001	-0.000000	0.000000	0.000000
45.423547	18.318459	14.435227	-0.050483	-0.113001	2.784833	0.000000	0.001591	0.000000	-0.000001	-0.000000	0.000000	0.000000
45.720870	18.353317	14.508625	-0.114709	-0.095952	2.785306	0.000000	0.008869	0.000000	-0.000001	-0.000000	0.000000	0.000000
46.269930	18.170241	14.894686	0.446171	-0.611330	2.767608	0.000000	-0.073241	0.000000	-0.000001	-0.000000	0.000000	0.000000
46.818990	17.384989	15.867141	0.975537	-1.170252	2.705117	0.000000	-0.154052	0.000000	-0.000001	-0.000000	0.000000	0.000000
47.368050	16.053029	17.495256	1.435995	-1.812528	2.598942	0.000000	-0.232131	0.000000	-0.000001	-0.000000	0.000000	0.000000
47.917110	14.268444	19.894997	1.795022	-2.583907	2.450966	0.000000	-0.306092	0.000000	-0.000001	0.000000	0.000000	0.000000
48.363070	12.879537	22.028692	1.330431	-2.180478	2.329751	0.000000	-0.237802	0.000000	-0.000001	0.000000	0.000000	0.000000
48.804030	11.886373	23.737117	0.930391	-1.679109	2.239348	0.000000	-0.172618	0.000000	-0.000001	-0.000000	0.000000	0.000000
49.244990	11.226006	24.967867	0.572857	-1.101341	2.177228	0.000000	-0.109399	0.000000	-0.000001	-0.000000	0.000000	0.000000
49.685950	10.868265	25.664946	0.241496	-0.473463	2.142684	0.000000	-0.047427	0.000000	-0.000001	-0.000000	0.000000	0.000000
50.128160	10.796939	25.796354	-0.052470	0.112646	2.135333	0.000000	0.008769	0.000000	-0.000001	-0.000000	0.000000	0.000000
50.425482	10.836350	25.732839	-0.080084	0.100974	2.137941	0.000000	0.008769	0.000000	-0.000001	-0.000000	0.000000	0.000000
50.758816	10.900059	25.669885	-0.111042	0.087888	2.140864	0.000000	0.008769	0.000000	-0.000001	-0.000000	0.000000	0.000000
51.092149	10.984406	25.615655	-0.142000	0.074803	2.143787	0.000000	0.008769	0.000000	-0.000001	-0.000000	0.000000	0.000000
51.426732	11.089600	25.570513	-0.083108	-0.145773	2.146699	0.000000	-0.008646	0.000000	-0.000001	-0.000000	0.000000	0.000000
51.724055	11.147046	25.660726	-0.082768	-0.220576	2.144129	0.000000	-0.013904	0.000000	-0.000001	-0.000000	0.000000	0.000000
52.165015	11.365544	25.569809	-0.414618	0.425973	2.151585	0.000000	0.047757	0.000000	-0.000001	-0.000000	0.000000	0.000000
52.605975	11.883923	24.915088	-0.765411	1.053139	2.186326	0.000000	0.109961	0.000000	-0.000001	-0.000000	0.000000	0.000000
53.046935	12.725865	23.726354	-1.151173	1.632389	2.248746	0.000000	0.173418	0.000000	-0.000001	-0.000000	0.000000	0.000000
53.487895	13.929837	22.057693	-1.589529	2.137366	2.339557	0.000000	0.238850	0.000000	-0.000001	-0.000000	0.000000	0.000000
53.933855	15.571477	19.960076	-2.104745	2.546429	2.461297	0.000000	0.307401	0.000000	-0.000002	-0.000000	0.000000	0.000000
54.482915	17.684975	17.599832	-1.721771	1.777643	2.609898	0.000000	0.233095	0.000000	-0.000002	-0.000000	0.000000	0.000000
55.031975	19.308245	16.009742	-1.217180	1.135475	2.716504	0.000000	0.154655	0.000000	-0.000002	-0.000000	0.000000	0.000000
55.581035	20.326626	15.076545	-0.626614	0.574184	2.779224	0.000000	0.073471	0.000000	-0.000002	-0.000000	0.000000	0.000000
56.130095	20.668187	14.733772	0.008214	0.053791	2.796945	0.000000	-0.009016	0.000000	-0.000002	-0.000000	0.000000	0.000000
56.428668	20.699852	14.684764	-0.060266	0.071851	2.796435	0.000000	-0.001708	0.000000	-0.000002	-0.000000	0.000000	0.000000
56.762001	20.745416	14.644469	-0.076427	0.049035	2.795866	0.000000	-0.001708	0.000000	-0.000002	-0.000000	0.000000	0.000000
57.095334	20.801755	14.619384	-0.092589	0.026218	2.795296	0.000000	-0.001708	0.000000	-0.000002	-0.000000	0.000000	0.000000
57.429918	20.869140	14.609502	-0.108811	0.003316	2.794725	0.000000	-0.001708	0.000000	-0.000002	-0.000000	0.000000	0.000000
57.727240	20.938130	14.613581	-0.177935	0.021148	2.794217	0.000000	0.005593	0.000000	-0.000002	-0.000000	0.000000	0.000000
58.276300	20.776242	14.871066	0.471037	-0.492873	2.774647	0.000000	-0.076775	0.000000	-0.000002	0.000000	0.000000	0.000000
58.825360	19.915838	15.708859	1.086737	-1.042000	2.710159	0.000000	-0.157782	0.000000	-0.000002	0.000000	0.000000	0.000000
59.374420	18.417693	17.186632	1.625675	-1.665347	2.601897	0.000000	-0.235990	0.000000	-0.000002	0.000000	0.000000	0.000000
59.923480	16.387628	19.409644	2.049784	-2.407313	2.451782	0.000000	-0.310012	0.000000	-0.000002	0.000000	0.000000	0.000000
60.369440	14.798598	21.385563	1.526002	-2.004695	2.328820	0.000000	-0.241724	0.000000	-0.000002	0.000000	0.000000	0.000000
60.810400	13.655488	22.942312	1.076153	-1.512235	2.236679	0.000000	-0.176586	0.000000	-0.000002	0.000000	0.000000	0.000000
61.251360	12.886012	24.032636	0.675470	-0.950969	2.172790	0.000000	-0.113459	0.000000	-0.000002	0.000000	0.000000	0.000000
61.692320	12.455014	24.606925	0.305647	-0.346435	2.136427	0.000000	-0.051624	0.000000	-0.000002	0.000000	0.000000	0.000000
62.134530	12.342853	24.638516	-0.020044	0.213385	2.127181	0.000000	0.004406	0.000000	-0.000001	0.000000	0.000000	0.000000
62.431853	12.361937	24.515379	-0.044143	0.200768	2.128491	0.000000	0.004406	0.000000	-0.000001	0.000000	0.000000	0.000000
62.765186	12.400372	24.386249	-0.071160	0.186623	2.129960	0.000000	0.004406	0.000000	-0.000001	0.000000	0.000000	0.000000
63.098520	12.456817	24.266548	-0.098177	0.172478	2.131428	0.000000	0.004406	0.000000	-0.000001	0.000000	0.000000	0.000000
63.433103	12.531587	24.155882	-0.125295	0.158280	2.132902	0.000000	0.004406	0.000000	-0.000001	0.000000	0.000000	0.000000
63.730426	12.613258	24.065513	-0.118462	0.086647	2.134212	0.000000	-0.000828	0.000000	-0.000001	0.000000	0.000000	0.000000
64.171386	12.878283	23.724047	-0.484837	0.684776	2.147389	0.000000	0.060651	0.000000	-0.000001	-0.000000	0.000000	0.000000
64.612346	13.474932	22.866856	-0.873363	1.251748	2.187803	0.000000	0.122820	0.000000	-0.000002	-0.000000	0.000000	0.000000
65.053306	14.430463	21.532941	-1.301791	1.761766	2.255912	0.000000	0.186389	0.000000	-0.000002	-0.000000	0.000000	0.000000
65.494266	15.788531	19.782994	-1.789693	2.191626	2.352494	0.000000	0.252080	0.000000	-0.000002	-0.000000	0.000000	0.000000
65.940226	17.634355	17.671862	-2.364057	2.522526	2.480220	0.000000	0.321044	0.000000	-0.000002	-0.000000	0.000000	0.000000
66.489286	20.000286	15.310076	-1.919493	1.804374	2.636122	0.000000	0.246006	0.000000	-0.000002	-0.000000	0.000000	0.000000
67.038346	21.800239	13.662127	-1.339346	1.214743	2.749564	0.000000	0.166606	0.000000	-0.000002	-0.000000	0.000000	0.000000
67.587406	22.907075	12.610636	-0.664595	0.711635	2.818533	0.000000	0.084249	0.000000	-0.000002	-0.000000	0.000000	0.000000
68.136466	23.242612	12.080709	0.057101	0.259216	2.841805	0.000000	0.000399	0.000000	-0.000002	0.000000	0.000000	0.000000
68.435038	23.248615	11.915073	-0.016475	0.263976	2.844141	0.000000	0.007824	0.000000	-0.000002	0.000000	0.000000	0.000000
68.768372	23.264378	11.749064	-0.030817	0.234051	2.846750	0.000000	0.007824	0.000000	-0.000002	0.000000	0.000000	0.000000
69.101705	23.289704	11.603005	-0.045158	0.204126	2.849358	0.000000	0.007824	0.000000	-0.000002	0.000000	0.000000	0.000000
69.436288	23.324738	11.476461	-0.059554	0.174089	2.851975	0.000000	0.007824	0.000000	-0.000002	0.000000	0.000000	0.000000
69.733611	23.363955	11.380876	-0.133393	0.177133	2.854302	0.000000	0.015282	0.000000	-0.000002	0.000000	0.000000	0.000000
70.282671	23.109184	11.414201	0.594661	-0.238185	2.839502	0.000000	-0.069110	0.000000	-0.000002	0.000000	0.000000	0.000000
