#ParticleID	Turn	x[m]	xp	y[m]	yp	z[m]	dE[GeV]# s	beta_x	beta_y	alpha_x	alpha_y	D_x	D_y	D_px	D_py	orbit_x	orbit_px	orbit_y	orbit_py
0.300000	11.802963	25.060833	-0.010019	-0.026756	2.618318	0.000000	-0.000065	0.000000	-0.000002	0.000002	0.000000	0.000000
0.601250	11.816689	25.080577	-0.035545	-0.038785	2.618298	0.000000	-0.000065	0.000000	-0.000002	0.000002	0.000000	0.000000
0.898573	11.845316	25.107171	-0.031689	-0.112228	2.618278	0.000000	-0.006486	0.000000	-0.000001	0.000002	0.000000	0.000000
1.339533	12.025265	24.927618	-0.377943	0.517865	2.631711	0.000000	0.067475	0.000000	-0.000000	0.000002	0.000000	0.000000
1.780493	12.517013	24.200680	-0.741463	1.124395	2.677897	0.000000	0.142205	0.000000	0.000001	0.000002	0.000000	0.000000
2.221453	13.343027	22.959434	-1.138859	1.679766	2.757360	0.000000	0.218554	0.000000	0.000001	0.000002	0.000000	0.000000
2.662413	14.541045	21.260355	-1.588287	2.158709	2.871007	0.000000	0.297392	0.000000	0.000002	0.000002	0.000000	0.000000
3.108373	16.186515	19.155834	-2.114563	2.540566	3.021992	0.000000	0.380107	0.000000	0.000003	0.000002	0.000000	0.000000
3.657433	18.296603	16.792085	-1.705778	1.789928	3.205421	0.000000	0.287070	0.000000	0.000004	0.000002	0.000000	0.000000
4.206493	19.888574	15.178201	-1.176506	1.166782	3.336292	0.000000	0.188941	0.000000	0.000005	0.000002	0.000000	0.000000
4.755553	20.849979	14.199227	-0.564131	0.626743	3.412283	0.000000	0.087460	0.000000	0.000006	0.000002	0.000000	0.000000
5.304613	21.112910	13.785434	0.088092	0.131345	3.432047	0.000000	-0.015572	0.000000	0.000007	0.000001	0.000000	0.000000
5.603185	21.097472	13.692142	0.018774	0.145097	3.430075	0.000000	-0.006605	0.000000	0.000008	0.000001	0.000000	0.000000
5.936519	21.090225	13.603697	0.002969	0.120239	3.427873	0.000000	-0.006605	0.000000	0.000008	0.000001	0.000000	0.000000
6.269852	21.093514	13.531823	-0.012837	0.095382	3.425670	0.000000	-0.006605	0.000000	0.000009	0.000001	0.000000	0.000000
6.604435	21.107412	13.476345	-0.028701	0.070431	3.423460	0.000000	-0.006605	0.000000	0.000009	0.000001	0.000000	0.000000
6.901758	21.128671	13.441056	-0.098000	0.083376	3.421496	0.000000	0.002334	0.000000	0.000009	0.000001	0.000000	0.000000
7.450818	20.876230	13.610478	0.555048	-0.393765	3.394577	0.000000	-0.100240	0.000000	0.000010	0.000001	0.000000	0.000000
7.999878	19.924048	14.316092	1.168891	-0.898952	3.311745	0.000000	-0.201036	0.000000	0.000011	0.000001	0.000000	0.000000
8.548938	18.339382	15.608157	1.700168	-1.468169	3.174470	0.000000	-0.298266	0.000000	0.000011	0.000000	0.000000	0.000000
9.097998	16.234165	17.578704	2.111355	-2.141962	2.985184	0.000000	-0.390206	0.000000	0.000011	0.000000	0.000000	0.000000
9.543958	14.591766	19.334527	1.584578	-1.778571	2.829473	0.000000	-0.308507	0.000000	0.000011	0.000000	0.000000	0.000000
9.984918	13.397301	20.712950	1.134480	-1.335493	2.710678	0.000000	-0.230806	0.000000	0.000011	0.000001	0.000000	0.000000
10.425878	12.575518	21.672224	0.736213	-0.831651	2.625535	0.000000	-0.155733	0.000000	0.000012	0.000001	0.000000	0.000000
10.866838	12.088872	22.168703	0.371581	-0.289970	2.573073	0.000000	-0.082434	0.000000	0.000012	0.000001	0.000000	0.000000
11.309048	11.914996	22.179271	0.053036	0.210461	2.552675	0.000000	-0.016334	0.000000	0.000013	0.000002	0.000000	0.000000
11.606371	11.890898	22.058284	0.028012	0.196462	2.547818	0.000000	-0.016334	0.000000	0.000013	0.000002	0.000000	0.000000
12.086371	11.883398	21.880529	-0.012386	0.173861	2.539977	0.000000	-0.016334	0.000000	0.000014	0.000002	0.000000	0.000000
12.566371	11.914680	21.724470	-0.052785	0.151261	2.532136	0.000000	-0.016334	0.000000	0.000015	0.000002	0.000000	0.000000
13.046371	11.984745	21.590108	-0.093184	0.128661	2.524295	0.000000	-0.016334	0.000000	0.000016	0.000002	0.000000	0.000000
13.526371	12.093593	21.477442	-0.133582	0.106060	2.516454	0.000000	-0.016334	0.000000	0.000016	0.000002	0.000000	0.000000
14.007621	12.241658	21.386264	-0.174086	0.083401	2.508593	0.000000	-0.016334	0.000000	0.000017	0.000002	0.000000	0.000000
14.304943	12.352618	21.340832	-0.168823	0.017077	2.503736	0.000000	-0.022473	0.000000	0.000018	0.000002	0.000000	0.000000
14.745903	12.659979	21.092218	-0.530846	0.544580	2.509454	0.000000	0.048436	0.000000	0.000018	0.000002	0.000000	0.000000
15.186863	13.296062	20.387578	-0.917122	1.047306	2.546532	0.000000	0.119897	0.000000	0.000019	0.000002	0.000000	0.000000
15.627823	14.289930	19.258974	-1.345299	1.502380	2.615392	0.000000	0.192723	0.000000	0.000020	0.000003	0.000000	0.000000
16.068783	15.686989	17.757755	-1.834939	1.889096	2.716817	0.000000	0.267744	0.000000	0.000022	0.000004	0.000000	0.000000
16.514743	17.574731	15.930728	-2.413171	2.190602	2.853658	0.000000	0.346276	0.000000	0.000024	0.000004	0.000000	0.000000
17.063803	19.999394	13.890773	-1.976710	1.546686	3.020059	0.000000	0.258969	0.000000	0.000026	0.000003	0.000000	0.000000
17.612863	21.864797	12.493632	-1.400624	1.012938	3.137190	0.000000	0.167068	0.000000	0.000027	0.000002	0.000000	0.000000
18.161923	23.039177	11.639791	-0.725605	0.551338	3.202973	0.000000	0.072204	0.000000	0.000028	0.000002	0.000000	0.000000
18.710983	23.439582	11.268431	0.000668	0.129009	3.216242	0.000000	-0.023941	0.000000	0.000029	0.000001	0.000000	0.000000
19.009556	23.479563	11.181926	-0.073346	0.131283	3.211602	0.000000	-0.015540	0.000000	0.000029	0.000001	0.000000	0.000000
19.342889	23.533218	11.104512	-0.087619	0.100959	3.206422	0.000000	-0.015540	0.000000	0.000029	0.000001	0.000000	0.000000
19.676223	23.596388	11.047314	-0.101892	0.070635	3.201242	0.000000	-0.015540	0.000000	0.000030	0.000001	0.000000	0.000000
20.010806	23.669657	11.010095	-0.233491	0.094749	3.196062	0.000000	0.000296	0.000000	0.000030	0.000001	0.000000	0.000000
20.308129	23.812440	10.961854	-0.308939	0.096136	3.196150	0.000000	0.008644	0.000000	0.000030	0.000001	0.000000	0.000000
20.857189	23.740974	11.078153	0.438329	-0.309200	3.174685	0.000000	-0.086716	0.000000	0.000030	-0.000000	0.000000	0.000000
21.406249	22.861131	11.648969	1.154636	-0.736559	3.101207	0.000000	-0.180539	0.000000	0.000030	-0.000001	0.000000	0.000000
21.955309	21.235059	12.714959	1.789386	-1.216382	2.977020	0.000000	-0.271160	0.000000	0.000029	-0.000002	0.000000	0.000000
22.504369	18.977617	14.352052	2.297741	-1.782846	2.804326	0.000000	-0.356971	0.000000	0.000028	-0.000003	0.000000	0.000000
22.950329	17.198434	15.821985	1.705895	-1.499356	2.662421	0.000000	-0.279784	0.000000	0.000027	-0.000002	0.000000	0.000000
23.391289	15.923349	16.994043	1.196684	-1.148499	2.555366	0.000000	-0.206238	0.000000	0.000026	-0.000002	0.000000	0.000000
23.832249	15.071634	17.832361	0.742145	-0.745385	2.480193	0.000000	-0.135041	0.000000	0.000025	-0.000001	0.000000	0.000000
24.273209	14.604376	18.298794	0.321513	-0.308358	2.436046	0.000000	-0.065381	0.000000	0.000025	-0.000000	0.000000	0.000000
24.715418	14.500348	18.371878	-0.048966	0.097588	2.422420	0.000000	-0.002406	0.000000	0.000025	0.000000	0.000000	0.000000
25.012741	14.535577	18.318705	-0.069519	0.081251	2.421704	0.000000	-0.002406	0.000000	0.000025	0.000000	0.000000	0.000000
25.346075	14.589604	18.270643	-0.092562	0.062934	2.420902	0.000000	-0.002406	0.000000	0.000025	0.000000	0.000000	0.000000
25.679408	14.658993	18.234793	-0.115605	0.044618	2.420100	0.000000	-0.002406	0.000000	0.000026	0.000000	0.000000	0.000000
26.013991	14.743792	18.211457	-0.019124	-0.121508	2.419270	0.000000	-0.022033	0.000000	0.000026	0.000000	0.000000	0.000000
26.311314	14.761162	18.288636	-0.003107	-0.182913	2.412719	0.000000	-0.027948	0.000000	0.000026	0.000000	0.000000	0.000000
26.752274	14.945745	18.251642	-0.417074	0.266490	2.415501	0.000000	0.040577	0.000000	0.000026	0.000001	0.000000	0.000000
27.193234	15.502405	17.822162	-0.850096	0.703768	2.448572	0.000000	0.109563	0.000000	0.000026	0.000001	0.000000	0.000000
27.634194	16.456574	17.019740	-1.321957	1.109025	2.512309	0.000000	0.179798	0.000000	0.000027	0.000002	0.000000	0.000000
28.075154	17.851846	15.880883	-1.854214	1.463822	2.607438	0.000000	0.252080	0.000000	0.000028	0.000003	0.000000	0.000000
28.521114	19.776203	14.440251	-2.476158	1.752928	2.736645	0.000000	0.327677	0.000000	0.000030	0.000004	0.000000	0.000000
29.070174	22.222056	12.835209	-1.952088	1.187580	2.893902	0.000000	0.244309	0.000000	0.000031	0.000003	0.000000	0.000000
29.619234	24.012831	11.801173	-1.290131	0.706820	3.004127	0.000000	0.156608	0.000000	0.000033	0.000002	0.000000	0.000000
30.168294	25.022036	11.264491	-0.537046	0.276405	3.065364	0.000000	0.066129	0.000000	0.000033	0.000001	0.000000	0.000000
30.717354	25.178386	11.186936	0.253973	-0.134321	3.076528	0.000000	-0.025523	0.000000	0.000033	-0.000001	0.000000	0.000000
31.015927	25.069666	11.257753	0.175926	-0.132084	3.071307	0.000000	-0.017487	0.000000	0.000033	-0.000000	0.000000	0.000000
31.349260	24.956951	11.355851	0.162219	-0.162210	3.065478	0.000000	-0.017487	0.000000	0.000033	-0.000000	0.000000	0.000000
31.682593	24.853375	11.474033	0.148511	-0.192336	3.059649	0.000000	-0.017487	0.000000	0.000033	-0.000000	0.000000	0.000000
32.017177	24.758600	11.612855	0.134752	-0.222574	3.053798	0.000000	-0.017487	0.000000	0.000032	-0.000000	0.000000	0.000000
32.314499	24.682106	11.753197	0.058052	-0.218745	3.048599	0.000000	-0.009524	0.000000	0.000032	-0.000000	0.000000	0.000000
32.863559	24.195437	12.232573	0.823068	-0.659492	3.018497	0.000000	-0.099964	0.000000	0.000032	-0.000001	0.000000	0.000000
33.412619	22.895797	13.218742	1.529945	-1.147213	2.939153	0.000000	-0.188631	0.000000	0.000031	-0.000002	0.000000	0.000000
33.961679	20.874987	14.781947	2.128755	-1.716648	2.811975	0.000000	-0.273953	0.000000	0.000029	-0.000003	0.000000	0.000000
34.510739	18.275746	17.033532	2.577200	-2.408356	2.639216	0.000000	-0.354415	0.000000	0.000027	-0.000004	0.000000	0.000000
34.956699	16.254670	19.047531	1.971003	-2.088886	2.497500	0.000000	-0.281508	0.000000	0.000025	-0.000004	0.000000	0.000000
35.397659	14.747506	20.713646	1.459876	-1.675115	2.388744	0.000000	-0.212236	0.000000	0.000024	-0.000003	0.000000	0.000000
35.838619	13.660112	21.979717	1.015446	-1.185129	2.309973	0.000000	-0.145381	0.000000	0.000023	-0.000002	0.000000	0.000000
36.279579	12.942808	22.788140	0.617410	-0.641219	2.260289	0.000000	-0.080181	0.000000	0.000022	-0.000002	0.000000	0.000000
36.721789	12.562127	23.102444	0.278276	-0.124832	2.239100	0.000000	-0.021385	0.000000	0.000021	-0.000001	0.000000	0.000000
37.019112	12.404234	23.180561	0.252775	-0.137902	2.232743	0.000000	-0.021385	0.000000	0.000021	-0.000001	0.000000	0.000000
37.352445	12.245247	23.277380	0.224185	-0.152555	2.225615	0.000000	-0.021385	0.000000	0.000020	-0.000001	0.000000	0.000000
37.685779	12.105321	23.383968	0.195595	-0.167209	2.218487	0.000000	-0.021385	0.000000	0.000020	-0.000001	0.000000	0.000000
38.020362	11.984036	23.500779	0.166899	-0.181917	2.211333	0.000000	-0.021385	0.000000	0.000019	-0.000001	0.000000	0.000000
38.317684	11.892373	23.612842	0.170556	-0.252883	2.204975	0.000000	-0.026791	0.000000	0.000019	-0.000001	0.000000	0.000000
38.758644	11.893535	23.574306	-0.173202	0.339940	2.207086	0.000000	0.036369	0.000000	0.000018	-0.000001	0.000000	0.000000
39.199604	12.200194	23.017797	-0.524873	0.917297	2.237112	0.000000	0.099944	0.000000	0.000018	-0.000000	0.000000	0.000000
39.640564	12.826361	21.968635	-0.900523	1.452917	2.295396	0.000000	0.164657	0.000000	0.000018	0.000000	0.000000	0.000000
40.081524	13.800644	20.474555	-1.317317	1.922431	2.382601	0.000000	0.231245	0.000000	0.000018	0.000000	0.000000	0.000000
40.527484	15.185133	18.580958	-1.798123	2.305763	2.501193	0.000000	0.300872	0.000000	0.000018	0.000001	0.000000	0.000000
41.076544	16.951764	16.452946	-1.400384	1.592851	2.645866	0.000000	0.225337	0.000000	0.000019	0.000000	0.000000	0.000000
41.625604	18.224395	15.041275	-0.903730	0.993394	2.747906	0.000000	0.145805	0.000000	0.000019	-0.000000	0.000000	0.000000
42.174664	18.913133	14.245395	-0.343240	0.464694	2.805503	0.000000	0.063687	0.000000	0.000018	-0.000001	0.000000	0.000000
42.723724	18.969330	14.008617	0.241494	-0.030907	2.817635	0.000000	-0.019561	0.000000	0.000018	-0.000001	0.000000	0.000000
43.022297	18.859588	14.011583	0.175618	-0.015624	2.813993	0.000000	-0.012200	0.000000	0.000017	-0.000001	0.000000	0.000000
43.502297	18.703588	14.043030	0.149382	-0.049890	2.808138	0.000000	-0.012200	0.000000	0.000017	-0.000001	0.000000	0.000000
43.982297	18.572774	14.107371	0.123146	-0.084155	2.802282	0.000000	-0.012200	0.000000	0.000016	-0.000001	0.000000	0.000000
44.462297	18.467148	14.204608	0.096910	-0.118421	2.796427	0.000000	-0.012200	0.000000	0.000015	-0.000001	0.000000	0.000000
44.942297	18.386708	14.334740	0.070674	-0.152687	2.790572	0.000000	-0.012200	0.000000	0.000015	-0.000001	0.000000	0.000000
45.423547	18.331571	14.498055	-0.046456	-0.115210	2.784718	0.000000	0.001597	0.000000	0.000014	-0.000001	0.000000	0.000000
45.720870	18.364028	14.572742	-0.110686	-0.097918	2.785194	0.000000	0.008874	0.000000	0.000013	-0.000001	0.000000	0.000000
46.269930	18.176372	14.962045	0.450439	-0.615303	2.767500	0.000000	-0.073233	0.000000	0.000013	-0.000002	0.000000	0.000000
46.818990	17.386437	15.940087	0.979748	-1.176514	2.705015	0.000000	-0.154041	0.000000	0.000012	-0.000002	0.000000	0.000000
47.368050	16.050020	17.576530	1.439852	-1.821525	2.598849	0.000000	-0.232116	0.000000	0.000010	-0.000002	0.000000	0.000000
47.917110	14.261519	19.987937	1.798252	-2.596280	2.450883	0.000000	-0.306074	0.000000	0.000009	-0.000003	0.000000	0.000000
48.363070	12.869819	22.131790	1.333487	-2.190787	2.329677	0.000000	-0.237786	0.000000	0.000008	-0.000003	0.000000	0.000000
48.804030	11.873983	23.848223	0.933416	-1.686892	2.239281	0.000000	-0.172604	0.000000	0.000007	-0.000002	0.000000	0.000000
49.244990	11.210911	25.084589	0.575990	-1.106245	2.177168	0.000000	-0.109387	0.000000	0.000006	-0.000002	0.000000	0.000000
49.685950	10.850308	25.784636	0.244879	-0.475264	2.142630	0.000000	-0.047416	0.000000	0.000005	-0.000002	0.000000	0.000000
50.128160	10.775821	25.916226	-0.048735	0.113739	2.135285	0.000000	0.008779	0.000000	0.000004	-0.000002	0.000000	0.000000
50.425482	10.813024	25.852046	-0.076392	0.102119	2.137895	0.000000	0.008779	0.000000	0.000003	-0.000002	0.000000	0.000000
50.758816	10.874288	25.788310	-0.107399	0.089090	2.140823	0.000000	0.008779	0.000000	0.000002	-0.000002	0.000000	0.000000
51.092149	10.956224	25.733259	-0.138406	0.076062	2.143750	0.000000	0.008779	0.000000	0.000002	-0.000002	0.000000	0.000000
51.426732	11.059030	25.687257	-0.079811	-0.145403	2.146666	0.000000	-0.008636	0.000000	0.000001	-0.000002	0.000000	0.000000
51.724055	11.114534	25.777235	-0.079612	-0.220436	2.144099	0.000000	-0.013894	0.000000	0.000001	-0.000002	0.000000	0.000000
52.165015	11.329898	25.684833	-0.410641	0.429185	2.151561	0.000000	0.047766	0.000000	-0.000000	-0.000002	0.000000	0.000000
52.605975	11.844343	25.025974	-0.760432	1.059278	2.186306	0.000000	0.109970	0.000000	-0.000001	-0.000002	0.000000	0.000000
53.046935	12.681370	23.830633	-1.144964	1.641175	2.248731	0.000000	0.173426	0.000000	-0.000002	-0.000002	0.000000	0.000000
53.487895	13.879223	22.153199	-1.581807	2.148400	2.339546	0.000000	0.238858	0.000000	-0.000003	-0.000002	0.000000	0.000000
53.933855	15.513164	20.044916	-2.095141	2.559213	2.461290	0.000000	0.307409	0.000000	-0.000004	-0.000002	0.000000	0.000000
54.482915	17.616883	17.672485	-1.713672	1.787187	2.609897	0.000000	0.233103	0.000000	-0.000005	-0.000002	0.000000	0.000000
55.031975	19.232352	16.073373	-1.211157	1.142459	2.716508	0.000000	0.154663	0.000000	-0.000006	-0.000002	0.000000	0.000000
55.581035	20.245461	15.133677	-0.623092	0.579106	2.779233	0.000000	0.073479	0.000000	-0.000007	-0.000002	0.000000	0.000000
56.130095	20.584650	14.786466	0.008985	0.057001	2.796959	0.000000	-0.009008	0.000000	-0.000008	-0.000001	0.000000	0.000000
56.428668	20.615743	14.735440	-0.059337	0.075261	2.796452	0.000000	-0.001700	0.000000	-0.000009	-0.000001	0.000000	0.000000
56.762001	20.660710	14.692848	-0.075562	0.052512	2.795886	0.000000	-0.001700	0.000000	-0.000009	-0.000001	0.000000	0.000000
57.095334	20.716493	14.665424	-0.091788	0.029763	2.795320	0.000000	-0.001700	0.000000	-0.000010	-0.000001	0.000000	0.000000
57.429918	20.783364	14.653147	-0.108075	0.006928	2.794752	0.000000	-0.001700	0.000000	-0.000010	-0.000001	0.000000	0.000000
57.727240	20.851933	14.655061	-0.177035	0.024930	2.794247	0.000000	0.005602	0.000000	-0.000010	-0.000001	0.000000	0.000000
58.276300	20.690646	14.909027	0.469047	-0.490208	2.774681	0.000000	-0.076768	0.000000	-0.000011	-0.000001	0.000000	0.000000
58.825360	19.833958	15.744416	1.081998	-1.040263	2.710198	0.000000	-0.157776	0.000000	-0.000012	-0.000001	0.000000	0.000000
59.374420	18.342382	17.220731	1.618521	-1.664413	2.601939	0.000000	-0.235985	0.000000	-0.000012	-0.000000	0.000000	0.000000
59.923480	16.321275	19.443127	2.040721	-2.407116	2.451827	0.000000	-0.310009	0.000000	-0.000012	0.000000	0.000000	0.000000
60.369440	14.739425	21.418356	1.518906	-2.003350	2.328867	0.000000	-0.241719	0.000000	-0.000012	-0.000000	0.000000	0.000000
60.810400	13.601836	22.973437	1.070683	-1.509810	2.236728	0.000000	-0.176580	0.000000	-0.000012	-0.000001	0.000000	0.000000
61.251360	12.836561	24.061185	0.671377	-0.947576	2.172843	0.000000	-0.113452	0.000000	-0.000013	-0.000001	0.000000	0.000000
61.692320	12.408636	24.632108	0.302744	-0.342227	2.136484	0.000000	-0.051616	0.000000	-0.000013	-0.000001	0.000000	0.000000
62.134530	12.298566	24.659686	-0.021996	0.218158	2.127243	0.000000	0.004415	0.000000	-0.000014	-0.000002	0.000000	0.000000
62.431853	12.318837	24.533715	-0.046183	0.205527	2.128556	0.000000	0.004415	0.000000	-0.000014	-0.000002	0.000000	0.000000
62.765186	12.358665	24.401417	-0.073300	0.191367	2.130028	0.000000	0.004415	0.000000	-0.000015	-0.000002	0.000000	0.000000
63.098520	12.416570	24.278559	-0.100416	0.177206	2.131501	0.000000	0.004415	0.000000	-0.000015	-0.000002	0.000000	0.000000
63.433103	12.492872	24.164735	-0.127635	0.162992	2.132978	0.000000	0.004415	0.000000	-0.000016	-0.000002	0.000000	0.000000
63.730426	12.575961	24.071568	-0.120977	0.091321	2.134292	0.000000	-0.000819	0.000000	-0.000016	-0.000002	0.000000	0.000000
64.171386	12.842851	23.725947	-0.486567	0.689489	2.147474	0.000000	0.060661	0.000000	-0.000017	-0.000002	0.000000	0.000000
64.612346	13.440708	22.864661	-0.874387	1.256285	2.187893	0.000000	0.122833	0.000000	-0.000018	-0.000002	0.000000	0.000000
65.053306	14.396848	21.526899	-1.302155	1.765921	2.256010	0.000000	0.186404	0.000000	-0.000019	-0.000003	0.000000	0.000000
65.494266	15.754954	19.773527	-1.789415	2.195210	2.352600	0.000000	0.252098	0.000000	-0.000021	-0.000003	0.000000	0.000000
65.940226	17.600235	17.659520	-2.363119	2.525368	2.480336	0.000000	0.321064	0.000000	-0.000022	-0.000004	0.000000	0.000000
66.489286	19.965891	15.294691	-1.919936	1.807106	2.636250	0.000000	0.246023	0.000000	-0.000024	-0.000003	0.000000	0.000000
67.038346	21.767078	13.643713	-1.341139	1.217561	2.749701	0.000000	0.166618	0.000000	-0.000026	-0.000002	0.000000	0.000000
67.587406	22.876568	12.588990	-0.667610	0.714740	2.818677	0.000000	0.084257	0.000000	-0.000027	-0.000002	0.000000	0.000000
68.136466	23.215993	12.055397	0.053075	0.262828	2.841953	0.000000	0.000402	0.000000	-0.000027	-0.000001	0.000000	0.000000
68.435038	23.224371	11.887673	-0.020460	0.267421	2.844291	0.000000	0.007830	0.000000	-0.000028	-0.000001	0.000000	0.000000
68.768372	23.242797	11.719407	-0.034818	0.237376	2.846901	0.000000	0.007830	0.000000	-0.000028	-0.000001	0.000000	0.000000
69.101705	23.270795	11.571172	-0.049177	0.207330	2.849511	0.000000	0.007830	0.000000	-0.000028	-0.000001	0.000000	0.000000
69.436288	23.308525	11.442524	-0.063590	0.177172	2.852131	0.000000	0.007830	0.000000	-0.000028	-0.000001	0.000000	0.000000
69.733611	23.350146	11.345138	-0.137422	0.180022	2.854459	0.000000	0.015289	0.000000	-0.000029	-0.000001	0.000000	0.000000
70.282671	23.100012	11.374730	0.590293	-0.234236	2.839663	0.000000	-0.069108	0.000000	-0.000029	0.000000	0.000000	0.000000
