#ParticleID	Turn	x[m]	xp	y[m]	yp	z[m]	dE[GeV]# s	beta_x	beta_y	alpha_x	alpha_y	D_x	D_y	D_px	D_py	orbit_x	orbit_px	orbit_y	orbit_py
0.300000	11.803010	25.060688	-0.010022	-0.026758	2.618316	0.000000	-0.000064	0.000000	-0.000002	0.000002	0.000000	0.000000
0.601250	11.816738	25.080434	-0.035547	-0.038788	2.618296	0.000000	-0.000064	0.000000	-0.000002	0.000002	0.000000	0.000000
0.898573	11.845366	25.107029	-0.031692	-0.112230	2.618277	0.000000	-0.006485	0.000000	-0.000001	0.000002	0.000000	0.000000
1.339533	12.025318	24.927480	-0.377946	0.517859	2.631710	0.000000	0.067476	0.000000	-0.000000	0.000002	0.000000	0.000000
1.780493	12.517069	24.200549	-0.741468	1.124385	2.677896	0.000000	0.142205	0.000000	0.000000	0.000002	0.000000	0.000000
2.221453	13.343088	22.959313	-1.138866	1.679754	2.757360	0.000000	0.218555	0.000000	0.000001	0.000002	0.000000	0.000000
2.662413	14.541113	21.260245	-1.588295	2.158694	2.871007	0.000000	0.297393	0.000000	0.000002	0.000002	0.000000	0.000000
3.108373	16.186591	19.155739	-2.114573	2.540550	3.021993	0.000000	0.380108	0.000000	0.000003	0.000002	0.000000	0.000000
3.657433	18.296690	16.792006	-1.705786	1.789915	3.205423	0.000000	0.287071	0.000000	0.000004	0.000002	0.000000	0.000000
4.206493	19.888669	15.178134	-1.176511	1.166772	3.336294	0.000000	0.188941	0.000000	0.000005	0.000002	0.000000	0.000000
4.755553	20.850079	14.199170	-0.564133	0.626735	3.412285	0.000000	0.087461	0.000000	0.000006	0.000002	0.000000	0.000000
5.304613	21.113011	13.785384	0.088092	0.131340	3.432050	0.000000	-0.015571	0.000000	0.000007	0.000001	0.000000	0.000000
5.603185	21.097573	13.692096	0.018774	0.145091	3.430077	0.000000	-0.006604	0.000000	0.000007	0.000001	0.000000	0.000000
5.936519	21.090325	13.603654	0.002969	0.120233	3.427875	0.000000	-0.006604	0.000000	0.000008	0.000001	0.000000	0.000000
6.269852	21.093614	13.531785	-0.012836	0.095376	3.425673	0.000000	-0.006604	0.000000	0.000008	0.000001	0.000000	0.000000
6.604435	21.107511	13.476310	-0.028701	0.070425	3.423463	0.000000	-0.006604	0.000000	0.000009	0.000001	0.000000	0.000000
6.901758	21.128770	13.441025	-0.098000	0.083370	3.421499	0.000000	0.002335	0.000000	0.000009	0.000001	0.000000	0.000000
7.450818	20.876326	13.610453	0.555052	-0.393770	3.394581	0.000000	-0.100240	0.000000	0.000010	0.000001	0.000000	0.000000
7.999878	19.924139	14.316073	1.168897	-0.898957	3.311749	0.000000	-0.201036	0.000000	0.000010	0.000001	0.000000	0.000000
8.548938	18.339464	15.608143	1.700178	-1.468174	3.174474	0.000000	-0.298266	0.000000	0.000011	0.000000	0.000000	0.000000
9.097998	16.234235	17.578696	2.111366	-2.141967	2.985189	0.000000	-0.390206	0.000000	0.000011	0.000000	0.000000	0.000000
9.543958	14.591827	19.334523	1.584587	-1.778577	2.829478	0.000000	-0.308507	0.000000	0.000011	0.000000	0.000000	0.000000
9.984918	13.397356	20.712952	1.134487	-1.335499	2.710683	0.000000	-0.230805	0.000000	0.000011	0.000001	0.000000	0.000000
10.425878	12.575568	21.672232	0.736218	-0.831657	2.625540	0.000000	-0.155733	0.000000	0.000012	0.000001	0.000000	0.000000
10.866838	12.088917	22.168717	0.371585	-0.289976	2.573078	0.000000	-0.082434	0.000000	0.000012	0.000001	0.000000	0.000000
11.309048	11.915038	22.179291	0.053040	0.210455	2.552680	0.000000	-0.016333	0.000000	0.000013	0.000002	0.000000	0.000000
11.606371	11.890938	22.058307	0.028016	0.196456	2.547824	0.000000	-0.016333	0.000000	0.000013	0.000002	0.000000	0.000000
12.086371	11.883434	21.880557	-0.012383	0.173855	2.539983	0.000000	-0.016333	0.000000	0.000014	0.000002	0.000000	0.000000
12.566371	11.914713	21.724504	-0.052781	0.151255	2.532142	0.000000	-0.016333	0.000000	0.000015	0.000002	0.000000	0.000000
13.046371	11.984774	21.590148	-0.093180	0.128655	2.524302	0.000000	-0.016333	0.000000	0.000015	0.000002	0.000000	0.000000
13.526371	12.093618	21.477487	-0.133578	0.106054	2.516461	0.000000	-0.016333	0.000000	0.000016	0.000002	0.000000	0.000000
14.007621	12.241680	21.386315	-0.174082	0.083395	2.508600	0.000000	-0.016333	0.000000	0.000017	0.000002	0.000000	0.000000
14.304943	12.352637	21.340887	-0.168819	0.017071	2.503744	0.000000	-0.022472	0.000000	0.000017	0.000002	0.000000	0.000000
14.745903	12.659994	21.092277	-0.530842	0.544576	2.509462	0.000000	0.048437	0.000000	0.000018	0.000002	0.000000	0.000000
15.186863	13.296074	20.387640	-0.917119	1.047303	2.546540	0.000000	0.119898	0.000000	0.000019	0.000002	0.000000	0.000000
15.627823	14.289938	19.259037	-1.345295	1.502379	2.615401	0.000000	0.192724	0.000000	0.000020	0.000003	0.000000	0.000000
16.068783	15.686994	17.757818	-1.834935	1.889098	2.716827	0.000000	0.267745	0.000000	0.000022	0.000004	0.000000	0.000000
16.514743	17.574731	15.930789	-2.413166	2.190606	2.853669	0.000000	0.346278	0.000000	0.000023	0.000004	0.000000	0.000000
17.063803	19.999389	13.890831	-1.976705	1.546688	3.020071	0.000000	0.258970	0.000000	0.000025	0.000003	0.000000	0.000000
17.612863	21.864786	12.493690	-1.400619	1.012938	3.137202	0.000000	0.167069	0.000000	0.000027	0.000002	0.000000	0.000000
18.161923	23.039160	11.639849	-0.725600	0.551337	3.202986	0.000000	0.072205	0.000000	0.000028	0.000002	0.000000	0.000000
18.710983	23.439560	11.268491	0.000672	0.129006	3.216255	0.000000	-0.023941	0.000000	0.000029	0.000001	0.000000	0.000000
19.009556	23.479538	11.181988	-0.073341	0.131280	3.211615	0.000000	-0.015539	0.000000	0.000029	0.000001	0.000000	0.000000
19.342889	23.533189	11.104576	-0.087614	0.100957	3.206435	0.000000	-0.015539	0.000000	0.000029	0.000001	0.000000	0.000000
19.676223	23.596356	11.047379	-0.101887	0.070633	3.201255	0.000000	-0.015539	0.000000	0.000029	0.000001	0.000000	0.000000
20.010806	23.669622	11.010161	-0.233486	0.094747	3.196075	0.000000	0.000296	0.000000	0.000030	0.000001	0.000000	0.000000
20.308129	23.812402	10.961922	-0.308934	0.096135	3.196163	0.000000	0.008645	0.000000	0.000030	0.000001	0.000000	0.000000
20.857189	23.740931	11.078223	0.438333	-0.309203	3.174698	0.000000	-0.086716	0.000000	0.000030	-0.000000	0.000000	0.000000
21.406249	22.861086	11.649043	1.154638	-0.736565	3.101221	0.000000	-0.180540	0.000000	0.000030	-0.000001	0.000000	0.000000
21.955309	21.235013	12.715041	1.789386	-1.216390	2.977033	0.000000	-0.271161	0.000000	0.000029	-0.000002	0.000000	0.000000
22.504369	18.977571	14.352144	2.297740	-1.782857	2.804339	0.000000	-0.356972	0.000000	0.000028	-0.000003	0.000000	0.000000
22.950329	17.198389	15.822085	1.705894	-1.499365	2.662433	0.000000	-0.279785	0.000000	0.000027	-0.000002	0.000000	0.000000
23.391289	15.923305	16.994150	1.196684	-1.148505	2.555377	0.000000	-0.206238	0.000000	0.000026	-0.000002	0.000000	0.000000
23.832249	15.071589	17.832472	0.742146	-0.745388	2.480204	0.000000	-0.135041	0.000000	0.000025	-0.000001	0.000000	0.000000
24.273209	14.604329	18.298907	0.321516	-0.308358	2.436057	0.000000	-0.065381	0.000000	0.000025	-0.000000	0.000000	0.000000
24.715418	14.500299	18.371989	-0.048962	0.097591	2.422431	0.000000	-0.002406	0.000000	0.000025	0.000000	0.000000	0.000000
25.012741	14.535525	18.318814	-0.069516	0.081253	2.421715	0.000000	-0.002406	0.000000	0.000025	0.000000	0.000000	0.000000
25.346075	14.589550	18.270751	-0.092559	0.062937	2.420913	0.000000	-0.002406	0.000000	0.000025	0.000000	0.000000	0.000000
25.679408	14.658937	18.234898	-0.115602	0.044621	2.420111	0.000000	-0.002406	0.000000	0.000025	0.000000	0.000000	0.000000
26.013991	14.743734	18.211560	-0.019121	-0.121506	2.419282	0.000000	-0.022033	0.000000	0.000026	0.000000	0.000000	0.000000
26.311314	14.761102	18.288739	-0.003105	-0.182911	2.412731	0.000000	-0.027948	0.000000	0.000026	0.000000	0.000000	0.000000
26.752274	14.945682	18.251741	-0.417070	0.266495	2.415513	0.000000	0.040577	0.000000	0.000026	0.000001	0.000000	0.000000
27.193234	15.502338	17.822256	-0.850091	0.703775	2.448584	0.000000	0.109564	0.000000	0.000026	0.000001	0.000000	0.000000
27.634194	16.456502	17.019826	-1.321949	1.109034	2.512321	0.000000	0.179799	0.000000	0.000027	0.000002	0.000000	0.000000
28.075154	17.851766	15.880960	-1.854204	1.463833	2.607451	0.000000	0.252082	0.000000	0.000028	0.000003	0.000000	0.000000
28.521114	19.776113	14.440317	-2.476146	1.752940	2.736658	0.000000	0.327679	0.000000	0.000030	0.000004	0.000000	0.000000
29.070174	22.221954	12.835263	-1.952078	1.187589	2.893916	0.000000	0.244310	0.000000	0.000031	0.000003	0.000000	0.000000
29.619234	24.012720	11.801218	-1.290125	0.706828	3.004142	0.000000	0.156608	0.000000	0.000033	0.000002	0.000000	0.000000
30.168294	25.021920	11.264528	-0.537043	0.276412	3.065379	0.000000	0.066129	0.000000	0.000033	0.000001	0.000000	0.000000
30.717354	25.178268	11.186967	0.253972	-0.134316	3.076543	0.000000	-0.025524	0.000000	0.000033	-0.000001	0.000000	0.000000
31.015927	25.069549	11.257780	0.175926	-0.132078	3.071322	0.000000	-0.017487	0.000000	0.000033	-0.000000	0.000000	0.000000
31.349260	24.956834	11.355874	0.162218	-0.162204	3.065493	0.000000	-0.017487	0.000000	0.000033	-0.000000	0.000000	0.000000
31.682593	24.853258	11.474052	0.148510	-0.192330	3.059664	0.000000	-0.017487	0.000000	0.000033	-0.000000	0.000000	0.000000
32.017177	24.758484	11.612870	0.134751	-0.222568	3.053813	0.000000	-0.017487	0.000000	0.000032	-0.000000	0.000000	0.000000
32.314499	24.681990	11.753209	0.058052	-0.218739	3.048614	0.000000	-0.009524	0.000000	0.000032	-0.000000	0.000000	0.000000
32.863559	24.195324	12.232578	0.823063	-0.659486	3.018512	0.000000	-0.099965	0.000000	0.000032	-0.000001	0.000000	0.000000
33.412619	22.895691	13.218740	1.529937	-1.147207	2.939168	0.000000	-0.188632	0.000000	0.000031	-0.000002	0.000000	0.000000
33.961679	20.874891	14.781938	2.128744	-1.716641	2.811988	0.000000	-0.273954	0.000000	0.000029	-0.000003	0.000000	0.000000
34.510739	18.275663	17.033514	2.577187	-2.408347	2.639229	0.000000	-0.354417	0.000000	0.000027	-0.000004	0.000000	0.000000
34.956699	16.254597	19.047505	1.970993	-2.088876	2.497512	0.000000	-0.281510	0.000000	0.000025	-0.000004	0.000000	0.000000
35.397659	14.747441	20.713612	1.459868	-1.675106	2.388755	0.000000	-0.212237	0.000000	0.000024	-0.000003	0.000000	0.000000
35.838619	13.660054	21.979676	1.015440	-1.185120	2.309983	0.000000	-0.145382	0.000000	0.000023	-0.000002	0.000000	0.000000
36.279579	12.942755	22.788091	0.617405	-0.641212	2.260299	0.000000	-0.080182	0.000000	0.000022	-0.000002	0.000000	0.000000
36.721789	12.562077	23.102389	0.278272	-0.124825	2.239110	0.000000	-0.021385	0.000000	0.000021	-0.000001	0.000000	0.000000
37.019112	12.404186	23.180502	0.252771	-0.137896	2.232752	0.000000	-0.021385	0.000000	0.000021	-0.000001	0.000000	0.000000
37.352445	12.245202	23.277317	0.224181	-0.152549	2.225625	0.000000	-0.021385	0.000000	0.000020	-0.000001	0.000000	0.000000
37.685779	12.105278	23.383901	0.195592	-0.167202	2.218497	0.000000	-0.021385	0.000000	0.000020	-0.000001	0.000000	0.000000
38.020362	11.983996	23.500709	0.166895	-0.181911	2.211342	0.000000	-0.021385	0.000000	0.000019	-0.000001	0.000000	0.000000
38.317684	11.892335	23.612767	0.170552	-0.252877	2.204984	0.000000	-0.026791	0.000000	0.000019	-0.000001	0.000000	0.000000
38.758644	11.893500	23.574227	-0.173205	0.339945	2.207094	0.000000	0.036369	0.000000	0.000018	-0.000001	0.000000	0.000000
39.199604	12.200162	23.017715	-0.524875	0.917299	2.237120	0.000000	0.099944	0.000000	0.000018	-0.000000	0.000000	0.000000
39.640564	12.826331	21.968552	-0.900525	1.452917	2.295404	0.000000	0.164657	0.000000	0.000018	0.000000	0.000000	0.000000
40.081524	13.800615	20.474474	-1.317318	1.922428	2.382610	0.000000	0.231245	0.000000	0.000018	0.000000	0.000000	0.000000
40.527484	15.185105	18.580880	-1.798124	2.305758	2.501202	0.000000	0.300873	0.000000	0.000018	0.000001	0.000000	0.000000
41.076544	16.951738	16.452872	-1.400387	1.592848	2.645875	0.000000	0.225337	0.000000	0.000019	0.000000	0.000000	0.000000
41.625604	18.224372	15.041202	-0.903733	0.993393	2.747915	0.000000	0.145805	0.000000	0.000019	-0.000000	0.000000	0.000000
42.174664	18.913115	14.245322	-0.343245	0.464696	2.805512	0.000000	0.063687	0.000000	0.000018	-0.000001	0.000000	0.000000
42.723724	18.969317	14.008541	0.241489	-0.030903	2.817644	0.000000	-0.019561	0.000000	0.000018	-0.000001	0.000000	0.000000
43.022297	18.859577	14.011505	0.175614	-0.015621	2.814002	0.000000	-0.012201	0.000000	0.000017	-0.000001	0.000000	0.000000
43.502297	18.703582	14.042949	0.149377	-0.049887	2.808146	0.000000	-0.012201	0.000000	0.000017	-0.000001	0.000000	0.000000
43.982297	18.572773	14.107287	0.123141	-0.084152	2.802290	0.000000	-0.012201	0.000000	0.000016	-0.000001	0.000000	0.000000
44.462297	18.467151	14.204521	0.096905	-0.118418	2.796435	0.000000	-0.012201	0.000000	0.000015	-0.000001	0.000000	0.000000
44.942297	18.386715	14.334651	0.070669	-0.152684	2.790579	0.000000	-0.012201	0.000000	0.000015	-0.000001	0.000000	0.000000
45.423547	18.331582	14.497963	-0.046460	-0.115208	2.784726	0.000000	0.001597	0.000000	0.000014	-0.000001	0.000000	0.000000
45.720870	18.364042	14.572649	-0.110691	-0.097917	2.785201	0.000000	0.008873	0.000000	0.000014	-0.000001	0.000000	0.000000
46.269930	18.176391	14.961949	0.450435	-0.615298	2.767506	0.000000	-0.073234	0.000000	0.000013	-0.000002	0.000000	0.000000
46.818990	17.386460	15.939984	0.979745	-1.176506	2.705022	0.000000	-0.154042	0.000000	0.000012	-0.000002	0.000000	0.000000
47.368050	16.050046	17.576418	1.439850	-1.821514	2.598854	0.000000	-0.232117	0.000000	0.000010	-0.000002	0.000000	0.000000
47.917110	14.261546	19.987810	1.798251	-2.596264	2.450888	0.000000	-0.306076	0.000000	0.000009	-0.000003	0.000000	0.000000
48.363070	12.869847	22.131650	1.333486	-2.190774	2.329681	0.000000	-0.237788	0.000000	0.000008	-0.000003	0.000000	0.000000
48.804030	11.874012	23.848073	0.933414	-1.686883	2.239285	0.000000	-0.172605	0.000000	0.000007	-0.000002	0.000000	0.000000
49.244990	11.210941	25.084433	0.575988	-1.106239	2.177171	0.000000	-0.109388	0.000000	0.000006	-0.000002	0.000000	0.000000
49.685950	10.850341	25.784477	0.244877	-0.475263	2.142633	0.000000	-0.047417	0.000000	0.000005	-0.000002	0.000000	0.000000
50.128160	10.775857	25.916068	-0.048739	0.113737	2.135287	0.000000	0.008778	0.000000	0.000004	-0.000002	0.000000	0.000000
50.425482	10.813062	25.851890	-0.076396	0.102116	2.137898	0.000000	0.008778	0.000000	0.000003	-0.000002	0.000000	0.000000
50.758816	10.874328	25.788155	-0.107403	0.089088	2.140824	0.000000	0.008778	0.000000	0.000003	-0.000002	0.000000	0.000000
51.092149	10.956266	25.733106	-0.138409	0.076059	2.143751	0.000000	0.008778	0.000000	0.000002	-0.000002	0.000000	0.000000
51.426732	11.059074	25.687106	-0.079814	-0.145405	2.146667	0.000000	-0.008637	0.000000	0.000001	-0.000002	0.000000	0.000000
51.724055	11.114579	25.777085	-0.079614	-0.220437	2.144100	0.000000	-0.013895	0.000000	0.000001	-0.000002	0.000000	0.000000
52.165015	11.329946	25.684686	-0.410645	0.429180	2.151561	0.000000	0.047765	0.000000	-0.000000	-0.000002	0.000000	0.000000
52.605975	11.844395	25.025833	-0.760437	1.059269	2.186306	0.000000	0.109969	0.000000	-0.000001	-0.000002	0.000000	0.000000
53.046935	12.681427	23.830502	-1.144971	1.641163	2.248731	0.000000	0.173426	0.000000	-0.000002	-0.000002	0.000000	0.000000
53.487895	13.879286	22.153080	-1.581815	2.148385	2.339545	0.000000	0.238857	0.000000	-0.000003	-0.000002	0.000000	0.000000
53.933855	15.513235	20.044811	-2.095151	2.559196	2.461289	0.000000	0.307408	0.000000	-0.000004	-0.000002	0.000000	0.000000
54.482915	17.616965	17.672397	-1.713680	1.787175	2.609896	0.000000	0.233102	0.000000	-0.000005	-0.000002	0.000000	0.000000
55.031975	19.232441	16.073296	-1.211162	1.142450	2.716506	0.000000	0.154662	0.000000	-0.000006	-0.000002	0.000000	0.000000
55.581035	20.245555	15.133610	-0.623095	0.579099	2.779231	0.000000	0.073478	0.000000	-0.000007	-0.000002	0.000000	0.000000
56.130095	20.584745	14.786405	0.008985	0.056996	2.796957	0.000000	-0.009009	0.000000	-0.000008	-0.000001	0.000000	0.000000
56.428668	20.615838	14.735382	-0.059336	0.075256	2.796449	0.000000	-0.001701	0.000000	-0.000008	-0.000001	0.000000	0.000000
56.762001	20.660804	14.692795	-0.075562	0.052507	2.795883	0.000000	-0.001701	0.000000	-0.000009	-0.000001	0.000000	0.000000
57.095334	20.716587	14.665373	-0.091788	0.029757	2.795317	0.000000	-0.001701	0.000000	-0.000009	-0.000001	0.000000	0.000000
57.429918	20.783457	14.653101	-0.108074	0.006923	2.794748	0.000000	-0.001701	0.000000	-0.000010	-0.000001	0.000000	0.000000
57.727240	20.852026	14.655018	-0.177034	0.024925	2.794243	0.000000	0.005601	0.000000	-0.000010	-0.000001	0.000000	0.000000
58.276300	20.690737	14.908990	0.469051	-0.490213	2.774677	0.000000	-0.076769	0.000000	-0.000011	-0.000001	0.000000	0.000000
58.825360	19.834043	15.744384	1.082004	-1.040267	2.710193	0.000000	-0.157776	0.000000	-0.000011	-0.000001	0.000000	0.000000
59.374420	18.342458	17.220703	1.618530	-1.664417	2.601935	0.000000	-0.235985	0.000000	-0.000012	-0.000000	0.000000	0.000000
59.923480	16.321340	19.443102	2.040731	-2.407120	2.451822	0.000000	-0.310009	0.000000	-0.000012	-0.000000	0.000000	0.000000
60.369440	14.739483	21.418335	1.518914	-2.003354	2.328862	0.000000	-0.241719	0.000000	-0.000012	-0.000000	0.000000	0.000000
60.810400	13.601887	22.973419	1.070690	-1.509816	2.236723	0.000000	-0.176580	0.000000	-0.000012	-0.000001	0.000000	0.000000
61.251360	12.836606	24.061172	0.671382	-0.947582	2.172838	0.000000	-0.113452	0.000000	-0.000012	-0.000001	0.000000	0.000000
61.692320	12.408677	24.632102	0.302748	-0.342233	2.136479	0.000000	-0.051616	0.000000	-0.000013	-0.000001	0.000000	0.000000
62.134530	12.298604	24.659685	-0.021993	0.218152	2.127237	0.000000	0.004415	0.000000	-0.000014	-0.000002	0.000000	0.000000
62.431853	12.318873	24.533717	-0.046180	0.205521	2.128550	0.000000	0.004415	0.000000	-0.000014	-0.000002	0.000000	0.000000
62.765186	12.358698	24.401424	-0.073296	0.191360	2.130022	0.000000	0.004415	0.000000	-0.000015	-0.000002	0.000000	0.000000
63.098520	12.416601	24.278570	-0.100413	0.177200	2.131494	0.000000	0.004415	0.000000	-0.000015	-0.000002	0.000000	0.000000
63.433103	12.492901	24.164750	-0.127631	0.162986	2.132972	0.000000	0.004415	0.000000	-0.000016	-0.000002	0.000000	0.000000
63.730426	12.575987	24.071587	-0.120973	0.091315	2.134285	0.000000	-0.000820	0.000000	-0.000016	-0.000002	0.000000	0.000000
64.171386	12.842873	23.725971	-0.486564	0.689483	2.147466	0.000000	0.060660	0.000000	-0.000017	-0.000002	0.000000	0.000000
64.612346	13.440728	22.864690	-0.874384	1.256280	2.187885	0.000000	0.122832	0.000000	-0.000018	-0.000002	0.000000	0.000000
65.053306	14.396866	21.526931	-1.302152	1.765918	2.256002	0.000000	0.186402	0.000000	-0.000019	-0.000003	0.000000	0.000000
65.494266	15.754969	19.773561	-1.789412	2.195208	2.352591	0.000000	0.252096	0.000000	-0.000020	-0.000003	0.000000	0.000000
65.940226	17.600247	17.659556	-2.363116	2.525367	2.480327	0.000000	0.321063	0.000000	-0.000022	-0.000004	0.000000	0.000000
66.489286	19.965900	15.294728	-1.919932	1.807105	2.636240	0.000000	0.246022	0.000000	-0.000024	-0.000003	0.000000	0.000000
67.038346	21.767082	13.643752	-1.341134	1.217559	2.749690	0.000000	0.166617	0.000000	-0.000026	-0.000002	0.000000	0.000000
67.587406	22.876567	12.589032	-0.667606	0.714737	2.818665	0.000000	0.084257	0.000000	-0.000027	-0.000002	0.000000	0.000000
68.136466	23.215988	12.055443	0.053079	0.262824	2.841941	0.000000	0.000402	0.000000	-0.000027	-0.000001	0.000000	0.000000
68.435038	23.224362	11.887721	-0.020455	0.267417	2.844279	0.000000	0.007829	0.000000	-0.000027	-0.000001	0.000000	0.000000
68.768372	23.242785	11.719458	-0.034814	0.237372	2.846889	0.000000	0.007829	0.000000	-0.000028	-0.000001	0.000000	0.000000
69.101705	23.270780	11.571225	-0.049172	0.207327	2.849499	0.000000	0.007829	0.000000	-0.000028	-0.000001	0.000000	0.000000
69.436288	23.308507	11.442579	-0.063585	0.177169	2.852119	0.000000	0.007829	0.000000	-0.000028	-0.000001	0.000000	0.000000
69.733611	23.350126	11.345194	-0.137417	0.180019	2.854447	0.000000	0.015289	0.000000	-0.000028	-0.000001	0.000000	0.000000
70.282671	23.099987	11.374791	0.590297	-0.234241	2.839650	0.000000	-0.069108	0.000000	-0.000029	0.000000	0.000000	0.000000
