#ParticleID	Turn	x[m]	xp	y[m]	yp	z[m]	dE[GeV]# s	beta_x	beta_y	alpha_x	alpha_y	D_x	D_y	D_px	D_py	orbit_x	orbit_px	orbit_y	orbit_py
0.300000	11.802346	25.062793	-0.009983	-0.026722	2.618349	0.000000	-0.000077	0.000000	-0.000002	0.000002	0.000000	0.000000
0.601250	11.816052	25.082516	-0.035511	-0.038750	2.618325	0.000000	-0.000077	0.000000	-0.000001	0.000002	0.000000	0.000000
0.898573	11.844659	25.109089	-0.031658	-0.112197	2.618301	0.000000	-0.006498	0.000000	-0.000001	0.000002	0.000000	0.000000
1.339533	12.024573	24.929486	-0.377896	0.517946	2.631729	0.000000	0.067463	0.000000	0.000000	0.000002	0.000000	0.000000
1.780493	12.516272	24.202457	-0.741399	1.124523	2.677910	0.000000	0.142193	0.000000	0.000001	0.000002	0.000000	0.000000
2.221453	13.342220	22.961079	-1.138774	1.679934	2.757368	0.000000	0.218543	0.000000	0.000002	0.000002	0.000000	0.000000
2.662413	14.540151	21.261836	-1.588176	2.158910	2.871010	0.000000	0.297381	0.000000	0.000003	0.000002	0.000000	0.000000
3.108373	16.185510	19.157125	-2.114422	2.540791	3.021991	0.000000	0.380096	0.000000	0.000004	0.000002	0.000000	0.000000
3.657433	18.295458	16.793160	-1.705666	1.790100	3.205414	0.000000	0.287059	0.000000	0.000005	0.000002	0.000000	0.000000
4.206493	19.887325	15.179109	-1.176430	1.166913	3.336279	0.000000	0.188930	0.000000	0.000006	0.000002	0.000000	0.000000
4.755553	20.848670	14.200008	-0.564097	0.626843	3.412264	0.000000	0.087450	0.000000	0.000007	0.000002	0.000000	0.000000
5.304613	21.111588	13.786118	0.088081	0.131422	3.432023	0.000000	-0.015581	0.000000	0.000008	0.000001	0.000000	0.000000
5.603185	21.096155	13.692779	0.018766	0.145176	3.430048	0.000000	-0.006614	0.000000	0.000008	0.000001	0.000000	0.000000
5.936519	21.088913	13.604281	0.002960	0.120319	3.427842	0.000000	-0.006614	0.000000	0.000009	0.000001	0.000000	0.000000
6.269852	21.092208	13.532354	-0.012846	0.095462	3.425637	0.000000	-0.006614	0.000000	0.000009	0.000001	0.000000	0.000000
6.604435	21.106113	13.476822	-0.028712	0.070512	3.423424	0.000000	-0.006614	0.000000	0.000010	0.000001	0.000000	0.000000
6.901758	21.127378	13.441485	-0.098008	0.083458	3.421457	0.000000	0.002325	0.000000	0.000010	0.000001	0.000000	0.000000
7.450818	20.874969	13.610823	0.554998	-0.393693	3.394533	0.000000	-0.100248	0.000000	0.000011	0.000001	0.000000	0.000000
7.999878	19.922864	14.316361	1.168801	-0.898885	3.311697	0.000000	-0.201043	0.000000	0.000011	0.000001	0.000000	0.000000
8.548938	18.338314	15.608353	1.700046	-1.468103	3.174418	0.000000	-0.298271	0.000000	0.000012	0.000000	0.000000	0.000000
9.097998	16.233246	17.578826	2.111208	-2.141891	2.985131	0.000000	-0.390209	0.000000	0.000012	-0.000000	0.000000	0.000000
9.543958	14.590964	19.334581	1.584461	-1.778490	2.829418	0.000000	-0.308512	0.000000	0.000012	0.000000	0.000000	0.000000
9.984918	13.396592	20.712929	1.134386	-1.335406	2.710621	0.000000	-0.230812	0.000000	0.000012	0.000001	0.000000	0.000000
10.425878	12.574883	21.672125	0.736138	-0.831561	2.625474	0.000000	-0.155741	0.000000	0.000012	0.000001	0.000000	0.000000
10.866838	12.088295	22.168526	0.371522	-0.289882	2.573009	0.000000	-0.082444	0.000000	0.000013	0.000001	0.000000	0.000000
11.309048	11.914464	22.179019	0.052990	0.210544	2.552606	0.000000	-0.016345	0.000000	0.000013	0.000002	0.000000	0.000000
11.606371	11.890395	22.057982	0.027965	0.196544	2.547746	0.000000	-0.016345	0.000000	0.000014	0.000002	0.000000	0.000000
12.086371	11.882941	21.880149	-0.012435	0.173943	2.539900	0.000000	-0.016345	0.000000	0.000014	0.000002	0.000000	0.000000
12.566371	11.914271	21.724013	-0.052836	0.151341	2.532054	0.000000	-0.016345	0.000000	0.000015	0.000002	0.000000	0.000000
13.046371	11.984385	21.589574	-0.093236	0.128740	2.524208	0.000000	-0.016345	0.000000	0.000016	0.000002	0.000000	0.000000
13.526371	12.093284	21.476832	-0.133636	0.106138	2.516362	0.000000	-0.016345	0.000000	0.000017	0.000002	0.000000	0.000000
14.007621	12.241402	21.385579	-0.174142	0.083478	2.508495	0.000000	-0.016345	0.000000	0.000017	0.000002	0.000000	0.000000
14.304943	12.352396	21.340102	-0.168880	0.017155	2.503635	0.000000	-0.022483	0.000000	0.000018	0.000001	0.000000	0.000000
14.745903	12.659805	21.091428	-0.530900	0.544637	2.509348	0.000000	0.048423	0.000000	0.000019	0.000002	0.000000	0.000000
15.186863	13.295936	20.386748	-0.917176	1.047339	2.546419	0.000000	0.119881	0.000000	0.000020	0.000002	0.000000	0.000000
15.627823	14.289851	19.258125	-1.345355	1.502388	2.615271	0.000000	0.192703	0.000000	0.000021	0.000003	0.000000	0.000000
16.068783	15.686961	17.756911	-1.834999	1.889079	2.716688	0.000000	0.267721	0.000000	0.000022	0.000004	0.000000	0.000000
16.514743	17.574758	15.929912	-2.413238	2.190559	2.853518	0.000000	0.346250	0.000000	0.000024	0.000004	0.000000	0.000000
17.063803	19.999499	13.889992	-1.976783	1.546665	3.019906	0.000000	0.258948	0.000000	0.000026	0.000003	0.000000	0.000000
17.612863	21.864983	12.492864	-1.400698	1.012936	3.137027	0.000000	0.167052	0.000000	0.000027	0.000002	0.000000	0.000000
18.161923	23.039443	11.639014	-0.725675	0.551356	3.202803	0.000000	0.072193	0.000000	0.000029	0.000002	0.000000	0.000000
18.710983	23.439921	11.267623	0.000606	0.129048	3.216067	0.000000	-0.023946	0.000000	0.000029	0.000001	0.000000	0.000000
19.009556	23.479938	11.181098	-0.073407	0.131317	3.211425	0.000000	-0.015545	0.000000	0.000029	0.000001	0.000000	0.000000
19.342889	23.533634	11.103662	-0.087680	0.100991	3.206244	0.000000	-0.015545	0.000000	0.000030	0.000001	0.000000	0.000000
19.676223	23.596846	11.046444	-0.101953	0.070664	3.201062	0.000000	-0.015545	0.000000	0.000030	0.000001	0.000000	0.000000
20.010806	23.670156	11.009206	-0.233555	0.094771	3.195880	0.000000	0.000289	0.000000	0.000030	0.000001	0.000000	0.000000
20.308129	23.812977	10.960953	-0.309004	0.096153	3.195966	0.000000	0.008638	0.000000	0.000030	0.000001	0.000000	0.000000
20.857189	23.741572	11.077218	0.438283	-0.309157	3.174499	0.000000	-0.086717	0.000000	0.000030	-0.000000	0.000000	0.000000
21.406249	22.861769	11.647971	1.154612	-0.736488	3.101023	0.000000	-0.180534	0.000000	0.000030	-0.000001	0.000000	0.000000
21.955309	21.235710	12.713864	1.789386	-1.216277	2.976840	0.000000	-0.271149	0.000000	0.000029	-0.000002	0.000000	0.000000
22.504369	18.978254	14.350820	2.297765	-1.782699	2.804154	0.000000	-0.356954	0.000000	0.000028	-0.000003	0.000000	0.000000
22.950329	17.199056	15.820634	1.705905	-1.499239	2.662255	0.000000	-0.279771	0.000000	0.000027	-0.000002	0.000000	0.000000
23.391289	15.923968	16.992605	1.196681	-1.148417	2.555205	0.000000	-0.206229	0.000000	0.000026	-0.000002	0.000000	0.000000
23.832249	15.072261	17.830867	0.742129	-0.745343	2.480034	0.000000	-0.135036	0.000000	0.000025	-0.000001	0.000000	0.000000
24.273209	14.605022	18.297281	0.321483	-0.308356	2.435888	0.000000	-0.065381	0.000000	0.000025	-0.000000	0.000000	0.000000
24.715418	14.501029	18.370381	-0.049009	0.097552	2.422261	0.000000	-0.002410	0.000000	0.000025	0.000000	0.000000	0.000000
25.012741	14.536283	18.317230	-0.069562	0.081213	2.421545	0.000000	-0.002410	0.000000	0.000025	0.000000	0.000000	0.000000
25.346075	14.590338	18.269194	-0.092604	0.062896	2.420741	0.000000	-0.002410	0.000000	0.000025	0.000000	0.000000	0.000000
25.679408	14.659755	18.233369	-0.115646	0.044578	2.419938	0.000000	-0.002410	0.000000	0.000025	0.000000	0.000000	0.000000
26.013991	14.744581	18.210060	-0.019157	-0.121538	2.419107	0.000000	-0.022035	0.000000	0.000026	0.000000	0.000000	0.000000
26.311314	14.761971	18.287258	-0.003138	-0.182941	2.412555	0.000000	-0.027950	0.000000	0.000026	0.000000	0.000000	0.000000
26.752274	14.946589	18.250304	-0.417125	0.266425	2.415335	0.000000	0.040570	0.000000	0.000026	0.000001	0.000000	0.000000
27.193234	15.503303	17.820898	-0.850169	0.703669	2.448402	0.000000	0.109553	0.000000	0.000026	0.000001	0.000000	0.000000
27.634194	16.457548	17.018575	-1.322055	1.108897	2.512134	0.000000	0.179783	0.000000	0.000027	0.000002	0.000000	0.000000
28.075154	17.852920	15.879843	-1.854343	1.463670	2.607255	0.000000	0.252061	0.000000	0.000028	0.000003	0.000000	0.000000
28.521114	19.777408	14.439354	-2.476324	1.752759	2.736452	0.000000	0.327652	0.000000	0.000029	0.000004	0.000000	0.000000
29.070174	22.223425	12.834476	-1.952219	1.187447	2.893698	0.000000	0.244291	0.000000	0.000031	0.000003	0.000000	0.000000
29.619234	24.014322	11.800570	-1.290220	0.706714	3.003915	0.000000	0.156596	0.000000	0.000032	0.000002	0.000000	0.000000
30.168294	25.023598	11.263993	-0.537085	0.276319	3.065148	0.000000	0.066124	0.000000	0.000033	0.000000	0.000000	0.000000
30.717354	25.179962	11.186525	0.253986	-0.134394	3.076311	0.000000	-0.025521	0.000000	0.000033	-0.000001	0.000000	0.000000
31.015927	25.071237	11.257386	0.175936	-0.132159	3.071091	0.000000	-0.017485	0.000000	0.000033	-0.000001	0.000000	0.000000
31.349260	24.958515	11.355535	0.162229	-0.162287	3.065263	0.000000	-0.017485	0.000000	0.000032	-0.000001	0.000000	0.000000
31.682593	24.854932	11.473768	0.148522	-0.192414	3.059435	0.000000	-0.017485	0.000000	0.000032	-0.000001	0.000000	0.000000
32.017177	24.760149	11.612643	0.134764	-0.222654	3.053585	0.000000	-0.017485	0.000000	0.000032	-0.000001	0.000000	0.000000
32.314499	24.683648	11.753034	0.058061	-0.218827	3.048386	0.000000	-0.009522	0.000000	0.000032	-0.000000	0.000000	0.000000
32.863559	24.196942	12.232498	0.823126	-0.659574	3.018287	0.000000	-0.099956	0.000000	0.000031	-0.000001	0.000000	0.000000
33.412619	22.897211	13.218760	1.530050	-1.147301	2.938950	0.000000	-0.188616	0.000000	0.000030	-0.000002	0.000000	0.000000
33.961679	20.876264	14.782067	2.128899	-1.716748	2.811781	0.000000	-0.273931	0.000000	0.000029	-0.000003	0.000000	0.000000
34.510739	18.276849	17.033772	2.577372	-2.408475	2.639036	0.000000	-0.354387	0.000000	0.000027	-0.000004	0.000000	0.000000
34.956699	16.255635	19.047878	1.971140	-2.089008	2.497331	0.000000	-0.281485	0.000000	0.000025	-0.000004	0.000000	0.000000
35.397659	14.748363	20.714100	1.459984	-1.675235	2.388584	0.000000	-0.212217	0.000000	0.000023	-0.000003	0.000000	0.000000
35.838619	13.660885	21.980274	1.015531	-1.185241	2.309821	0.000000	-0.145366	0.000000	0.000022	-0.000002	0.000000	0.000000
36.279579	12.943516	22.788791	0.617474	-0.641319	2.260143	0.000000	-0.080170	0.000000	0.000021	-0.000002	0.000000	0.000000
36.721789	12.562785	23.103175	0.278325	-0.124916	2.238958	0.000000	-0.021377	0.000000	0.000021	-0.000001	0.000000	0.000000
37.019112	12.404863	23.181342	0.252824	-0.137986	2.232603	0.000000	-0.021377	0.000000	0.000020	-0.000001	0.000000	0.000000
37.352445	12.245843	23.278217	0.224236	-0.152639	2.225478	0.000000	-0.021377	0.000000	0.000020	-0.000001	0.000000	0.000000
37.685779	12.105882	23.384861	0.195647	-0.167292	2.218352	0.000000	-0.021377	0.000000	0.000019	-0.000001	0.000000	0.000000
38.020362	11.984563	23.501728	0.166951	-0.182000	2.211201	0.000000	-0.021377	0.000000	0.000019	-0.000001	0.000000	0.000000
38.317684	11.892868	23.613840	0.170610	-0.252969	2.204845	0.000000	-0.026783	0.000000	0.000018	-0.000001	0.000000	0.000000
38.758644	11.893988	23.575368	-0.173158	0.339882	2.206958	0.000000	0.036374	0.000000	0.000018	-0.000001	0.000000	0.000000
39.199604	12.200613	23.018897	-0.524838	0.917269	2.236986	0.000000	0.099945	0.000000	0.000017	-0.000001	0.000000	0.000000
39.640564	12.826753	21.969746	-0.900496	1.452921	2.295270	0.000000	0.164655	0.000000	0.000017	-0.000000	0.000000	0.000000
40.081524	13.801014	20.475650	-1.317295	1.922466	2.382474	0.000000	0.231240	0.000000	0.000017	0.000000	0.000000	0.000000
40.527484	15.185486	18.582008	-1.798106	2.305828	2.501062	0.000000	0.300864	0.000000	0.000018	0.000001	0.000000	0.000000
41.076544	16.952089	16.453941	-1.400352	1.592885	2.645732	0.000000	0.225333	0.000000	0.000018	0.000000	0.000000	0.000000
41.625604	18.224676	15.042248	-0.903683	0.993401	2.747771	0.000000	0.145805	0.000000	0.000018	-0.000000	0.000000	0.000000
42.174664	18.913357	14.246375	-0.343183	0.464674	2.805369	0.000000	0.063692	0.000000	0.000018	-0.000001	0.000000	0.000000
42.723724	18.969487	14.009635	0.241558	-0.030955	2.817505	0.000000	-0.019552	0.000000	0.000017	-0.000001	0.000000	0.000000
43.022297	18.859707	14.012628	0.175682	-0.015668	2.813866	0.000000	-0.012191	0.000000	0.000017	-0.000001	0.000000	0.000000
43.502297	18.703646	14.044116	0.149445	-0.049932	2.808014	0.000000	-0.012191	0.000000	0.000016	-0.000001	0.000000	0.000000
43.982297	18.572772	14.108497	0.123208	-0.084195	2.802163	0.000000	-0.012191	0.000000	0.000015	-0.000001	0.000000	0.000000
44.462297	18.467086	14.205770	0.096972	-0.118458	2.796312	0.000000	-0.012191	0.000000	0.000015	-0.000001	0.000000	0.000000
44.942297	18.386587	14.335937	0.070735	-0.152721	2.790461	0.000000	-0.012191	0.000000	0.000014	-0.000001	0.000000	0.000000
45.423547	18.331390	14.499283	-0.046394	-0.115235	2.784611	0.000000	0.001605	0.000000	0.000013	-0.000001	0.000000	0.000000
45.720870	18.363811	14.573985	-0.110624	-0.097939	2.785089	0.000000	0.008881	0.000000	0.000013	-0.000001	0.000000	0.000000
46.269930	18.176091	14.963332	0.450492	-0.615362	2.767400	0.000000	-0.073222	0.000000	0.000012	-0.000002	0.000000	0.000000
46.818990	17.386104	15.941461	0.979788	-1.176615	2.704923	0.000000	-0.154027	0.000000	0.000011	-0.000002	0.000000	0.000000
47.368050	16.049651	17.578043	1.439876	-1.821676	2.598765	0.000000	-0.232099	0.000000	0.000010	-0.000002	0.000000	0.000000
47.917110	14.261132	19.989647	1.798259	-2.596491	2.450809	0.000000	-0.306055	0.000000	0.000008	-0.000003	0.000000	0.000000
48.363070	12.869424	22.133672	1.333500	-2.190959	2.329611	0.000000	-0.237769	0.000000	0.000007	-0.000003	0.000000	0.000000
48.804030	11.873573	23.850236	0.933436	-1.687017	2.239223	0.000000	-0.172587	0.000000	0.000006	-0.000002	0.000000	0.000000
49.244990	11.210480	25.086690	0.576017	-1.106317	2.177116	0.000000	-0.109372	0.000000	0.000005	-0.000002	0.000000	0.000000
49.685950	10.849850	25.786775	0.244915	-0.475280	2.142585	0.000000	-0.047402	0.000000	0.000004	-0.000002	0.000000	0.000000
50.128160	10.775328	25.918354	-0.048691	0.113775	2.135245	0.000000	0.008792	0.000000	0.000003	-0.000002	0.000000	0.000000
50.425482	10.812505	25.854153	-0.076349	0.102155	2.137860	0.000000	0.008792	0.000000	0.000003	-0.000002	0.000000	0.000000
50.758816	10.873740	25.790392	-0.107357	0.089127	2.140791	0.000000	0.008792	0.000000	0.000002	-0.000002	0.000000	0.000000
51.092149	10.955648	25.735316	-0.138366	0.076100	2.143722	0.000000	0.008792	0.000000	0.000001	-0.000002	0.000000	0.000000
51.426732	11.058427	25.689289	-0.079777	-0.145380	2.146643	0.000000	-0.008623	0.000000	0.000001	-0.000002	0.000000	0.000000
51.724055	11.113911	25.779252	-0.079580	-0.220418	2.144079	0.000000	-0.013881	0.000000	0.000000	-0.000002	0.000000	0.000000
52.165015	11.329241	25.686811	-0.410595	0.429256	2.151547	0.000000	0.047778	0.000000	-0.000001	-0.000002	0.000000	0.000000
52.605975	11.843637	25.027866	-0.760368	1.059399	2.186297	0.000000	0.109982	0.000000	-0.000002	-0.000002	0.000000	0.000000
53.046935	12.680600	23.832399	-1.144881	1.641340	2.248727	0.000000	0.173438	0.000000	-0.000003	-0.000002	0.000000	0.000000
53.487895	13.878368	22.154803	-1.581699	2.148602	2.339548	0.000000	0.238870	0.000000	-0.000004	-0.000002	0.000000	0.000000
53.933855	15.512201	20.046326	-2.095005	2.559442	2.461297	0.000000	0.307421	0.000000	-0.000005	-0.000002	0.000000	0.000000
54.482915	17.615784	17.673675	-1.713562	1.787361	2.609911	0.000000	0.233115	0.000000	-0.000006	-0.000002	0.000000	0.000000
55.031975	19.231152	16.074397	-1.211083	1.142590	2.716528	0.000000	0.154674	0.000000	-0.000007	-0.000002	0.000000	0.000000
55.581035	20.244201	15.134577	-0.623058	0.579203	2.779259	0.000000	0.073489	0.000000	-0.000008	-0.000002	0.000000	0.000000
56.130095	20.583377	14.787275	0.008976	0.057071	2.796990	0.000000	-0.008999	0.000000	-0.000009	-0.000001	0.000000	0.000000
56.428668	20.614474	14.736206	-0.059343	0.075334	2.796486	0.000000	-0.001690	0.000000	-0.000009	-0.000001	0.000000	0.000000
56.762001	20.659445	14.693566	-0.075570	0.052586	2.795923	0.000000	-0.001690	0.000000	-0.000010	-0.000001	0.000000	0.000000
57.095334	20.715234	14.666092	-0.091797	0.029837	2.795360	0.000000	-0.001690	0.000000	-0.000010	-0.000001	0.000000	0.000000
57.429918	20.782111	14.653765	-0.108085	0.007004	2.794795	0.000000	-0.001690	0.000000	-0.000011	-0.000001	0.000000	0.000000
57.727240	20.850687	14.655634	-0.177042	0.025008	2.794293	0.000000	0.005611	0.000000	-0.000011	-0.000001	0.000000	0.000000
58.276300	20.689431	14.909523	0.468998	-0.490145	2.774732	0.000000	-0.076760	0.000000	-0.000012	-0.000001	0.000000	0.000000
58.825360	19.832818	15.744848	1.081911	-1.040210	2.710252	0.000000	-0.157769	0.000000	-0.000012	-0.000001	0.000000	0.000000
59.374420	18.341355	17.221109	1.618403	-1.664366	2.601997	0.000000	-0.235981	0.000000	-0.000012	-0.000000	0.000000	0.000000
59.923480	16.320392	19.443454	2.040579	-2.407072	2.451886	0.000000	-0.310006	0.000000	-0.000013	0.000000	0.000000	0.000000
60.369440	14.738656	21.418638	1.518792	-2.003291	2.328928	0.000000	-0.241715	0.000000	-0.000013	-0.000000	0.000000	0.000000
60.810400	13.601157	22.973660	1.070592	-1.509739	2.236792	0.000000	-0.176574	0.000000	-0.000013	-0.000001	0.000000	0.000000
61.251360	12.835953	24.061341	0.671304	-0.947496	2.172910	0.000000	-0.113444	0.000000	-0.000013	-0.000001	0.000000	0.000000
61.692320	12.408086	24.632192	0.302686	-0.342142	2.136554	0.000000	-0.051606	0.000000	-0.000014	-0.000001	0.000000	0.000000
62.134530	12.298061	24.659694	-0.022042	0.218244	2.127317	0.000000	0.004426	0.000000	-0.000014	-0.000002	0.000000	0.000000
62.431853	12.318360	24.533671	-0.046230	0.205613	2.128634	0.000000	0.004426	0.000000	-0.000015	-0.000002	0.000000	0.000000
62.765186	12.358220	24.401316	-0.073348	0.191452	2.130110	0.000000	0.004426	0.000000	-0.000015	-0.000002	0.000000	0.000000
63.098520	12.416157	24.278402	-0.100466	0.177291	2.131586	0.000000	0.004426	0.000000	-0.000016	-0.000002	0.000000	0.000000
63.433103	12.492493	24.164521	-0.127685	0.163076	2.133067	0.000000	0.004426	0.000000	-0.000016	-0.000002	0.000000	0.000000
63.730426	12.575612	24.071304	-0.121029	0.091405	2.134383	0.000000	-0.000809	0.000000	-0.000017	-0.000002	0.000000	0.000000
64.171386	12.842545	23.725613	-0.486613	0.689564	2.147571	0.000000	0.060674	0.000000	-0.000017	-0.000002	0.000000	0.000000
64.612346	13.440441	22.864266	-0.874429	1.256347	2.187996	0.000000	0.122849	0.000000	-0.000018	-0.000002	0.000000	0.000000
65.053306	14.396617	21.526455	-1.302194	1.765968	2.256121	0.000000	0.186422	0.000000	-0.000019	-0.000003	0.000000	0.000000
65.494266	15.754757	19.773050	-1.789454	2.195239	2.352720	0.000000	0.252119	0.000000	-0.000021	-0.000003	0.000000	0.000000
65.940226	17.600073	17.659025	-2.363159	2.525378	2.480466	0.000000	0.321089	0.000000	-0.000022	-0.000004	0.000000	0.000000
66.489286	19.965779	15.294180	-1.919987	1.807125	2.636393	0.000000	0.246043	0.000000	-0.000024	-0.000003	0.000000	0.000000
67.038346	21.767027	13.643176	-1.341198	1.217589	2.749853	0.000000	0.166633	0.000000	-0.000026	-0.000002	0.000000	0.000000
67.587406	22.876584	12.588416	-0.667673	0.714780	2.818836	0.000000	0.084268	0.000000	-0.000027	-0.000002	0.000000	0.000000
68.136466	23.216079	12.054771	0.053013	0.262882	2.842117	0.000000	0.000408	0.000000	-0.000028	-0.000001	0.000000	0.000000
68.435038	23.224493	11.887015	-0.020522	0.267472	2.844456	0.000000	0.007835	0.000000	-0.000028	-0.000001	0.000000	0.000000
68.768372	23.242961	11.718717	-0.034881	0.237424	2.847068	0.000000	0.007835	0.000000	-0.000028	-0.000001	0.000000	0.000000
69.101705	23.271001	11.570450	-0.049239	0.207376	2.849680	0.000000	0.007835	0.000000	-0.000028	-0.000001	0.000000	0.000000
69.436288	23.308773	11.441772	-0.063652	0.177216	2.852302	0.000000	0.007835	0.000000	-0.000029	-0.000001	0.000000	0.000000
69.733611	23.350431	11.344360	-0.137485	0.180062	2.854632	0.000000	0.015296	0.000000	-0.000029	-0.000001	0.000000	0.000000
70.282671	23.100360	11.373897	0.590241	-0.234174	2.839837	0.000000	-0.069108	0.000000	-0.000029	0.000000	0.000000	0.000000
