#ParticleID	Turn	x[m]	xp	y[m]	yp	z[m]	dE[GeV]# s	beta_x	beta_y	alpha_x	alpha_y	D_x	D_y	D_px	D_py	orbit_x	orbit_px	orbit_y	orbit_py
0.300000	11.831030	24.950950	-0.013241	-0.027757	2.618266	0.000000	-0.000047	0.000000	0.000000	0.000000	0.000000	0.000000
0.601250	11.846680	24.971313	-0.038708	-0.039840	2.618252	0.000000	-0.000047	0.000000	0.000000	0.000000	0.000000	0.000000
0.898573	11.877171	24.998550	-0.034717	-0.113069	2.618238	0.000000	-0.006468	0.000000	0.000000	0.000000	0.000000	0.000000
1.339533	12.060133	24.821004	-0.381774	0.514171	2.631680	0.000000	0.067493	0.000000	0.000000	0.000000	0.000000	0.000000
1.780493	12.555677	24.098525	-0.746274	1.118017	2.677874	0.000000	0.142222	0.000000	0.000000	0.000000	0.000000	0.000000
2.221453	13.386444	22.863984	-1.144869	1.670995	2.757346	0.000000	0.218570	0.000000	0.000000	0.000000	0.000000	0.000000
2.662413	14.590389	21.173553	-1.595770	2.147943	2.871000	0.000000	0.297408	0.000000	0.000001	0.000000	0.000000	0.000000
3.108373	16.243323	19.079351	-2.123877	2.528291	3.021993	0.000000	0.380123	0.000000	0.000001	0.000000	0.000000	0.000000
3.657433	18.362888	16.727363	-1.713624	1.780656	3.205432	0.000000	0.287086	0.000000	0.000001	0.000000	0.000000	0.000000
4.206493	19.962410	15.122322	-1.182330	1.159852	3.336312	0.000000	0.188956	0.000000	0.000001	0.000000	0.000000	0.000000
4.755553	20.928905	14.149904	-0.567522	0.621662	3.412313	0.000000	0.087475	0.000000	0.000001	0.000000	0.000000	0.000000
5.304613	21.194105	13.740845	0.087374	0.127752	3.432085	0.000000	-0.015558	0.000000	0.000001	0.000000	0.000000	0.000000
5.603185	21.179208	13.649781	0.017896	0.141344	3.430117	0.000000	-0.006591	0.000000	0.000001	0.000000	0.000000	0.000000
5.936519	21.172525	13.563854	0.002152	0.116435	3.427920	0.000000	-0.006591	0.000000	0.000001	0.000000	0.000000	0.000000
6.269852	21.176338	13.494534	-0.013592	0.091527	3.425723	0.000000	-0.006591	0.000000	0.000001	0.000000	0.000000	0.000000
6.604435	21.190721	13.441652	-0.029394	0.066525	3.423518	0.000000	-0.006591	0.000000	0.000001	0.000000	0.000000	0.000000
6.901758	21.212375	13.408699	-0.098861	0.079342	3.421558	0.000000	0.002349	0.000000	0.000001	0.000000	0.000000	0.000000
7.450818	20.959336	13.582067	0.556992	-0.396960	3.394648	0.000000	-0.100227	0.000000	0.000001	0.000000	0.000000	0.000000
7.999878	20.003534	14.290835	1.173501	-0.901536	3.311823	0.000000	-0.201026	0.000000	0.000001	0.000000	0.000000	0.000000
8.548938	18.412481	15.585487	1.707120	-1.470326	3.174552	0.000000	-0.298259	0.000000	0.000001	0.000000	0.000000	0.000000
9.097998	16.298563	17.558239	2.120157	-2.143845	2.985271	0.000000	-0.390201	0.000000	0.000001	-0.000000	0.000000	0.000000
9.543958	14.649190	19.316129	1.591470	-1.781307	2.829562	0.000000	-0.308500	0.000000	0.000001	0.000000	0.000000	0.000000
9.984918	13.449364	20.697293	1.139792	-1.338950	2.710771	0.000000	-0.230796	0.000000	0.000001	0.000000	0.000000	0.000000
10.425878	12.623502	21.659877	0.740187	-0.835672	2.625633	0.000000	-0.155721	0.000000	0.000001	0.000000	0.000000	0.000000
10.866838	12.133872	22.160084	0.374399	-0.294371	2.573177	0.000000	-0.082420	0.000000	0.000002	0.000000	0.000000	0.000000
11.309048	11.957966	22.174641	0.054936	0.205885	2.552787	0.000000	-0.016317	0.000000	0.000002	0.000000	0.000000	0.000000
11.606371	11.932714	22.056368	0.029997	0.191908	2.547935	0.000000	-0.016317	0.000000	0.000002	0.000000	0.000000	0.000000
12.086371	11.923243	21.882966	-0.010265	0.169344	2.540103	0.000000	-0.016317	0.000000	0.000002	0.000000	0.000000	0.000000
12.566371	11.952423	21.731226	-0.050527	0.146781	2.532271	0.000000	-0.016317	0.000000	0.000002	0.000000	0.000000	0.000000
13.046371	12.020254	21.601148	-0.090789	0.124217	2.524438	0.000000	-0.016317	0.000000	0.000002	0.000000	0.000000	0.000000
13.526371	12.126736	21.492730	-0.131050	0.101653	2.516606	0.000000	-0.016317	0.000000	0.000002	0.000000	0.000000	0.000000
14.007621	12.272299	21.405777	-0.171417	0.079030	2.508753	0.000000	-0.016317	0.000000	0.000002	0.000000	0.000000	0.000000
14.304943	12.381646	21.362938	-0.165993	0.012666	2.503902	0.000000	-0.022458	0.000000	0.000002	0.000000	0.000000	0.000000
14.745903	12.686770	21.117921	-0.528586	0.540862	2.509628	0.000000	0.048456	0.000000	0.000002	0.000000	0.000000	0.000000
15.186863	13.321071	20.416192	-0.915328	1.044449	2.546716	0.000000	0.119921	0.000000	0.000002	0.000000	0.000000	0.000000
15.627823	14.313530	19.289679	-1.343888	1.500514	2.615589	0.000000	0.192752	0.000000	0.000002	0.000000	0.000000	0.000000
16.068783	15.709489	17.789636	-1.833848	1.888307	2.717029	0.000000	0.267778	0.000000	0.000002	0.000000	0.000000	0.000000
16.514743	17.596380	15.962813	-2.412348	2.190933	2.853888	0.000000	0.346316	0.000000	0.000003	0.000000	0.000000	0.000000
17.063803	20.019555	13.922868	-1.974843	1.546339	3.020311	0.000000	0.259001	0.000000	0.000003	0.000000	0.000000	0.000000
17.612863	21.882391	12.526492	-1.397845	1.011886	3.137458	0.000000	0.167092	0.000000	0.000003	0.000000	0.000000	0.000000
18.161923	23.053304	11.674223	-0.722110	0.549508	3.203253	0.000000	0.072219	0.000000	0.000003	0.000000	0.000000	0.000000
18.710983	23.449589	11.305357	0.004632	0.126270	3.216528	0.000000	-0.023935	0.000000	0.000003	0.000000	0.000000	0.000000
19.009556	23.487222	11.220394	-0.069410	0.128758	3.211891	0.000000	-0.015531	0.000000	0.000003	0.000000	0.000000	0.000000
19.342889	23.538249	11.144622	-0.083670	0.098557	3.206713	0.000000	-0.015531	0.000000	0.000003	0.000000	0.000000	0.000000
19.676223	23.598783	11.088984	-0.097931	0.068357	3.201536	0.000000	-0.015531	0.000000	0.000003	0.000000	0.000000	0.000000
20.010806	23.669397	11.053247	-0.229516	0.092808	3.196360	0.000000	0.000306	0.000000	0.000003	0.000000	0.000000	0.000000
20.308129	23.809809	11.006126	-0.304948	0.094433	3.196451	0.000000	0.008657	0.000000	0.000003	0.000000	0.000000	0.000000
20.857189	23.734029	11.124984	0.442148	-0.312185	3.174990	0.000000	-0.086714	0.000000	0.000003	-0.000000	0.000000	0.000000
21.406249	22.850213	11.699874	1.158013	-0.741040	3.101511	0.000000	-0.180546	0.000000	0.000003	-0.000000	0.000000	0.000000
21.955309	21.220789	12.771745	1.792081	-1.222677	2.977317	0.000000	-0.271177	0.000000	0.000003	-0.000000	0.000000	0.000000
22.504369	18.960851	14.416945	2.299566	-1.791403	2.804610	0.000000	-0.356997	0.000000	0.000003	-0.000000	0.000000	0.000000
22.950329	17.179981	15.893863	1.707871	-1.506397	2.662694	0.000000	-0.279803	0.000000	0.000003	-0.000000	0.000000	0.000000
23.391289	15.903055	17.071344	1.198902	-1.153709	2.555631	0.000000	-0.206250	0.000000	0.000003	-0.000000	0.000000	0.000000
23.832249	15.049240	17.913358	0.744707	-0.748528	2.480454	0.000000	-0.135046	0.000000	0.000003	-0.000000	0.000000	0.000000
24.273209	14.579528	18.381595	0.324536	-0.309290	2.436306	0.000000	-0.065380	0.000000	0.000003	-0.000000	0.000000	0.000000
24.715418	14.472574	18.454504	-0.045405	0.098698	2.422682	0.000000	-0.002400	0.000000	0.000003	0.000000	0.000000	0.000000
25.012741	14.505694	18.400650	-0.065991	0.082430	2.421969	0.000000	-0.002400	0.000000	0.000003	0.000000	0.000000	0.000000
25.346075	14.557381	18.351777	-0.089071	0.064191	2.421169	0.000000	-0.002400	0.000000	0.000003	0.000000	0.000000	0.000000
25.679408	14.624455	18.315062	-0.112150	0.045953	2.420369	0.000000	-0.002400	0.000000	0.000003	0.000000	0.000000	0.000000
26.013991	14.706955	18.290808	-0.016004	-0.120738	2.419541	0.000000	-0.022029	0.000000	0.000003	-0.000000	0.000000	0.000000
26.311314	14.722484	18.367508	-0.000123	-0.182272	2.412992	0.000000	-0.027946	0.000000	0.000003	-0.000000	0.000000	0.000000
26.752274	14.904007	18.329005	-0.413094	0.269255	2.415776	0.000000	0.040586	0.000000	0.000003	0.000000	0.000000	0.000000
27.193234	15.456653	17.896194	-0.844939	0.708531	2.448853	0.000000	0.109580	0.000000	0.000003	0.000000	0.000000	0.000000
27.634194	16.405671	17.088766	-1.315387	1.115569	2.512599	0.000000	0.179821	0.000000	0.000003	0.000000	0.000000	0.000000
28.075154	17.794417	15.943459	-1.845931	1.471850	2.607741	0.000000	0.252111	0.000000	0.000003	0.000000	0.000000	0.000000
28.521114	19.710475	14.495135	-2.465766	1.762077	2.736965	0.000000	0.327716	0.000000	0.000003	0.000000	0.000000	0.000000
29.070174	22.145789	12.881254	-1.943403	1.194625	2.894242	0.000000	0.244337	0.000000	0.000003	0.000000	0.000000	0.000000
29.619234	23.928251	11.840402	-1.283768	0.712263	3.004480	0.000000	0.156625	0.000000	0.000003	0.000000	0.000000	0.000000
30.168294	24.931957	11.298441	-0.533454	0.280635	3.065725	0.000000	0.066134	0.000000	0.000003	0.000000	0.000000	0.000000
30.717354	25.086009	11.216768	0.254541	-0.131005	3.076888	0.000000	-0.025529	0.000000	0.000003	-0.000000	0.000000	0.000000
31.015927	24.976831	11.285526	0.176670	-0.128592	3.071666	0.000000	-0.017490	0.000000	0.000003	-0.000000	0.000000	0.000000
31.349260	24.863638	11.381263	0.162908	-0.158617	3.065836	0.000000	-0.017490	0.000000	0.000003	-0.000000	0.000000	0.000000
31.682593	24.759620	11.497016	0.149146	-0.188642	3.060006	0.000000	-0.017490	0.000000	0.000003	-0.000000	0.000000	0.000000
32.017177	24.664438	11.633332	0.135332	-0.218779	3.054155	0.000000	-0.017490	0.000000	0.000003	-0.000000	0.000000	0.000000
32.314499	24.587614	11.771391	0.058815	-0.214805	3.048954	0.000000	-0.009524	0.000000	0.000003	-0.000000	0.000000	0.000000
32.863559	24.101834	12.246626	0.820695	-0.655848	3.018849	0.000000	-0.099976	0.000000	0.000003	-0.000000	0.000000	0.000000
33.412619	22.806455	13.228836	1.524605	-1.143605	2.939495	0.000000	-0.188654	0.000000	0.000003	-0.000000	0.000000	0.000000
33.961679	20.792976	14.787982	2.120825	-1.712819	2.812300	0.000000	-0.273986	0.000000	0.000003	-0.000000	0.000000	0.000000
34.510739	18.203619	17.035117	2.567240	-2.404034	2.639519	0.000000	-0.354458	0.000000	0.000003	-0.000000	0.000000	0.000000
34.956699	16.190429	19.045022	1.963220	-2.084066	2.497783	0.000000	-0.281544	0.000000	0.000003	-0.000000	0.000000	0.000000
35.397659	14.689312	20.706749	1.453896	-1.670024	2.389011	0.000000	-0.212265	0.000000	0.000002	-0.000000	0.000000	0.000000
35.838619	13.606501	21.968295	1.010996	-1.179997	2.310228	0.000000	-0.145403	0.000000	0.000002	-0.000000	0.000000	0.000000
36.279579	12.892525	22.772261	0.614286	-0.636282	2.260535	0.000000	-0.080197	0.000000	0.000002	-0.000000	0.000000	0.000000
36.721789	12.514073	23.082367	0.276223	-0.120274	2.239341	0.000000	-0.021396	0.000000	0.000002	-0.000000	0.000000	0.000000
37.019112	12.357422	23.157773	0.250651	-0.133341	2.232979	0.000000	-0.021396	0.000000	0.000002	-0.000000	0.000000	0.000000
37.352445	12.199877	23.251550	0.221982	-0.147991	2.225848	0.000000	-0.021396	0.000000	0.000002	-0.000000	0.000000	0.000000
37.685779	12.061445	23.355094	0.193313	-0.162641	2.218716	0.000000	-0.021396	0.000000	0.000002	-0.000000	0.000000	0.000000
38.020362	11.941714	23.468848	0.164537	-0.177346	2.211557	0.000000	-0.021396	0.000000	0.000002	-0.000000	0.000000	0.000000
38.317684	11.851476	23.578191	0.168028	-0.248233	2.205196	0.000000	-0.026803	0.000000	0.000002	-0.000000	0.000000	0.000000
38.758644	11.854462	23.535973	-0.174825	0.343609	2.207302	0.000000	0.036363	0.000000	0.000002	-0.000000	0.000000	0.000000
39.199604	12.162183	22.976725	-0.525665	0.919816	2.237326	0.000000	0.099943	0.000000	0.000002	-0.000000	0.000000	0.000000
39.640564	12.788697	21.925892	-0.900521	1.454173	2.295610	0.000000	0.164661	0.000000	0.000002	-0.000000	0.000000	0.000000
40.081524	13.762628	20.431286	-1.316519	1.922366	2.382819	0.000000	0.231255	0.000000	0.000002	0.000000	0.000000	0.000000
40.527484	15.146035	18.538342	-1.796489	2.304371	2.501416	0.000000	0.300888	0.000000	0.000002	0.000000	0.000000	0.000000
41.076544	16.911682	16.411251	-1.400239	1.592558	2.646096	0.000000	0.225345	0.000000	0.000002	0.000000	0.000000	0.000000
41.625604	18.184979	14.999312	-0.905083	0.994179	2.748138	0.000000	0.145806	0.000000	0.000002	-0.000000	0.000000	0.000000
42.174664	18.875987	14.201956	-0.345996	0.466613	2.805734	0.000000	0.063680	0.000000	0.000002	-0.000000	0.000000	0.000000
42.723724	18.935896	13.962390	0.237530	-0.027717	2.817860	0.000000	-0.019575	0.000000	0.000002	-0.000000	0.000000	0.000000
43.022297	18.828474	13.963542	0.171730	-0.012622	2.814213	0.000000	-0.012213	0.000000	0.000002	-0.000000	0.000000	0.000000
43.502297	18.676211	13.992162	0.145485	-0.047003	2.808351	0.000000	-0.012213	0.000000	0.000001	-0.000000	0.000000	0.000000
43.982297	18.549143	14.053787	0.119239	-0.081383	2.802490	0.000000	-0.012213	0.000000	0.000001	-0.000000	0.000000	0.000000
44.462297	18.447271	14.148418	0.092994	-0.115764	2.796628	0.000000	-0.012213	0.000000	0.000001	-0.000000	0.000000	0.000000
44.942297	18.370594	14.276054	0.066749	-0.150145	2.790766	0.000000	-0.012213	0.000000	0.000001	-0.000000	0.000000	0.000000
45.423547	18.319238	14.436978	-0.050328	-0.113085	2.784906	0.000000	0.001586	0.000000	0.000001	-0.000000	0.000000	0.000000
45.720870	18.354003	14.510426	-0.114554	-0.096031	2.785377	0.000000	0.008863	0.000000	0.000001	-0.000000	0.000000	0.000000
46.269930	18.170746	14.896604	0.446345	-0.611466	2.767675	0.000000	-0.073249	0.000000	0.000001	-0.000000	0.000000	0.000000
46.818990	17.385299	15.869244	0.975717	-1.170455	2.705180	0.000000	-0.154062	0.000000	0.000001	-0.000000	0.000000	0.000000
47.368050	16.053143	17.497625	1.436169	-1.812812	2.598998	0.000000	-0.232143	0.000000	0.000001	-0.000000	0.000000	0.000000
47.917110	14.268376	19.897732	1.795177	-2.584293	2.451015	0.000000	-0.306106	0.000000	0.000001	-0.000000	0.000000	0.000000
48.363070	12.879337	22.031747	1.330573	-2.180805	2.329795	0.000000	-0.237814	0.000000	0.000001	-0.000000	0.000000	0.000000
48.804030	11.886050	23.740428	0.930527	-1.679362	2.239387	0.000000	-0.172629	0.000000	0.000000	-0.000000	0.000000	0.000000
49.244990	11.225563	24.971366	0.572994	-1.101510	2.177262	0.000000	-0.109409	0.000000	0.000000	-0.000000	0.000000	0.000000
49.685950	10.867700	25.668553	0.241639	-0.473539	2.142714	0.000000	-0.047436	0.000000	0.000000	-0.000000	0.000000	0.000000
50.128160	10.796243	25.799986	-0.052317	0.112658	2.135359	0.000000	0.008761	0.000000	0.000000	-0.000000	0.000000	0.000000
50.425482	10.835563	25.736464	-0.079932	0.100988	2.137964	0.000000	0.008761	0.000000	0.000000	-0.000000	0.000000	0.000000
50.758816	10.899171	25.673500	-0.110891	0.087904	2.140884	0.000000	0.008761	0.000000	0.000000	-0.000000	0.000000	0.000000
51.092149	10.983418	25.619259	-0.141851	0.074820	2.143805	0.000000	0.008761	0.000000	-0.000000	-0.000000	0.000000	0.000000
51.426732	11.088512	25.574105	-0.082969	-0.145783	2.146714	0.000000	-0.008655	0.000000	-0.000000	-0.000000	0.000000	0.000000
51.724055	11.145877	25.664324	-0.082634	-0.220593	2.144141	0.000000	-0.013913	0.000000	-0.000000	-0.000000	0.000000	0.000000
52.165015	11.364244	25.573379	-0.414454	0.426051	2.151594	0.000000	0.047748	0.000000	-0.000000	-0.000000	0.000000	0.000000
52.605975	11.882462	24.918549	-0.765209	1.053309	2.186330	0.000000	0.109953	0.000000	-0.000000	-0.000000	0.000000	0.000000
53.046935	12.724207	23.729627	-1.150924	1.632643	2.248747	0.000000	0.173410	0.000000	-0.000000	-0.000000	0.000000	0.000000
53.487895	13.927936	22.060709	-1.589222	2.137693	2.339554	0.000000	0.238842	0.000000	-0.000001	-0.000000	0.000000	0.000000
53.933855	15.569271	19.962774	-2.104366	2.546813	2.461290	0.000000	0.307393	0.000000	-0.000001	-0.000000	0.000000	0.000000
54.482915	17.682381	17.602166	-1.721447	1.777927	2.609887	0.000000	0.233087	0.000000	-0.000001	-0.000000	0.000000	0.000000
55.031975	19.305335	16.011810	-1.216934	1.135678	2.716488	0.000000	0.154647	0.000000	-0.000001	-0.000000	0.000000	0.000000
55.581035	20.323498	15.078427	-0.626463	0.574321	2.779204	0.000000	0.073464	0.000000	-0.000001	-0.000000	0.000000	0.000000
56.130095	20.664951	14.735536	0.008258	0.053872	2.796921	0.000000	-0.009022	0.000000	-0.000001	-0.000000	0.000000	0.000000
56.428668	20.696585	14.686476	-0.060214	0.071939	2.796409	0.000000	-0.001714	0.000000	-0.000001	-0.000000	0.000000	0.000000
56.762001	20.742115	14.646122	-0.076379	0.049125	2.795838	0.000000	-0.001714	0.000000	-0.000001	-0.000000	0.000000	0.000000
57.095334	20.798423	14.620977	-0.092543	0.026311	2.795266	0.000000	-0.001714	0.000000	-0.000001	-0.000000	0.000000	0.000000
57.429918	20.865778	14.611033	-0.108767	0.003411	2.794693	0.000000	-0.001714	0.000000	-0.000001	-0.000000	0.000000	0.000000
57.727240	20.934742	14.615055	-0.177884	0.021248	2.794183	0.000000	0.005586	0.000000	-0.000001	-0.000000	0.000000	0.000000
58.276300	20.772861	14.872453	0.470973	-0.492814	2.774609	0.000000	-0.076781	0.000000	-0.000001	-0.000000	0.000000	0.000000
58.825360	19.912587	15.710200	1.086564	-1.041978	2.710118	0.000000	-0.157787	0.000000	-0.000002	-0.000000	0.000000	0.000000
59.374420	18.414686	17.187968	1.625405	-1.665359	2.601855	0.000000	-0.235993	0.000000	-0.000002	-0.000000	0.000000	0.000000
59.923480	16.384963	19.411013	2.049436	-2.407361	2.451738	0.000000	-0.310014	0.000000	-0.000002	0.000000	0.000000	0.000000
60.369440	14.796208	21.386956	1.525731	-2.004701	2.328776	0.000000	-0.241727	0.000000	-0.000002	0.000000	0.000000	0.000000
60.810400	13.653308	22.943692	1.075947	-1.512199	2.236633	0.000000	-0.176590	0.000000	-0.000002	-0.000000	0.000000	0.000000
61.251360	12.883989	24.033966	0.675319	-0.950893	2.172743	0.000000	-0.113464	0.000000	-0.000002	-0.000000	0.000000	0.000000
61.692320	12.453102	24.608171	0.305544	-0.346322	2.136377	0.000000	-0.051631	0.000000	-0.000002	-0.000000	0.000000	0.000000
62.134530	12.341012	24.639647	-0.020108	0.213528	2.127128	0.000000	0.004398	0.000000	-0.000002	-0.000000	0.000000	0.000000
62.431853	12.360135	24.516425	-0.044210	0.200911	2.128436	0.000000	0.004398	0.000000	-0.000002	-0.000000	0.000000	0.000000
62.765186	12.398615	24.387200	-0.071231	0.186765	2.129902	0.000000	0.004398	0.000000	-0.000002	-0.000000	0.000000	0.000000
63.098520	12.455109	24.267404	-0.098252	0.172620	2.131368	0.000000	0.004398	0.000000	-0.000002	-0.000000	0.000000	0.000000
63.433103	12.529931	24.156643	-0.125375	0.158422	2.132840	0.000000	0.004398	0.000000	-0.000002	-0.000000	0.000000	0.000000
63.730426	12.611651	24.066189	-0.118548	0.086787	2.134147	0.000000	-0.000835	0.000000	-0.000002	-0.000000	0.000000	0.000000
64.171386	12.876737	23.724593	-0.484889	0.684930	2.147321	0.000000	0.060642	0.000000	-0.000002	-0.000000	0.000000	0.000000
64.612346	13.473417	22.867262	-0.873383	1.251909	2.187730	0.000000	0.122809	0.000000	-0.000002	-0.000000	0.000000	0.000000
65.053306	14.428952	21.533204	-1.301780	1.761928	2.255834	0.000000	0.186376	0.000000	-0.000002	-0.000000	0.000000	0.000000
65.494266	15.786997	19.783118	-1.789651	2.191780	2.352410	0.000000	0.252065	0.000000	-0.000002	-0.000000	0.000000	0.000000
65.940226	17.632767	17.671855	-2.363980	2.522666	2.480129	0.000000	0.321027	0.000000	-0.000003	-0.000000	0.000000	0.000000
66.489286	19.998647	15.309926	-1.919477	1.804496	2.636022	0.000000	0.245992	0.000000	-0.000003	-0.000000	0.000000	0.000000
67.038346	21.798617	13.661848	-1.339392	1.214857	2.749457	0.000000	0.166595	0.000000	-0.000003	-0.000000	0.000000	0.000000
67.587406	22.905535	12.610233	-0.664699	0.711749	2.818421	0.000000	0.084242	0.000000	-0.000003	-0.000000	0.000000	0.000000
68.136466	23.241215	12.080177	0.056945	0.259338	2.841691	0.000000	0.000395	0.000000	-0.000003	-0.000000	0.000000	0.000000
68.435038	23.247309	11.914470	-0.016628	0.264094	2.844026	0.000000	0.007820	0.000000	-0.000003	-0.000000	0.000000	0.000000
68.768372	23.263175	11.748383	-0.030971	0.234166	2.846632	0.000000	0.007820	0.000000	-0.000003	-0.000000	0.000000	0.000000
69.101705	23.288603	11.602249	-0.045313	0.204237	2.849239	0.000000	0.007820	0.000000	-0.000003	-0.000000	0.000000	0.000000
69.436288	23.323742	11.475631	-0.059710	0.174197	2.851856	0.000000	0.007820	0.000000	-0.000003	-0.000000	0.000000	0.000000
69.733611	23.363051	11.379983	-0.133548	0.177236	2.854181	0.000000	0.015278	0.000000	-0.000003	-0.000000	0.000000	0.000000
70.282671	23.108464	11.413181	0.594480	-0.238055	2.839381	0.000000	-0.069111	0.000000	-0.000003	0.000000	0.000000	0.000000
