#ParticleID	Turn	x[m]	xp	y[m]	yp	z[m]	dE[GeV]# s	beta_x	beta_y	alpha_x	alpha_y	D_x	D_y	D_px	D_py	orbit_x	orbit_px	orbit_y	orbit_py
0.300000	11.821876	24.985830	-0.011981	-0.027576	2.618087	0.000000	0.000023	0.000000	-0.000001	0.000001	0.000000	0.000000
0.601250	11.836772	25.006079	-0.037467	-0.039642	2.618093	0.000000	0.000023	0.000000	-0.000000	0.000001	0.000000	0.000000
0.898573	11.866531	25.033193	-0.033521	-0.112940	2.618100	0.000000	-0.006398	0.000000	-0.000000	0.000001	0.000000	0.000000
1.339533	12.048322	24.855129	-0.380305	0.515213	2.631572	0.000000	0.067559	0.000000	0.000000	0.000001	0.000000	0.000000
1.780493	12.542426	24.131345	-0.744465	1.119924	2.677794	0.000000	0.142286	0.000000	0.000000	0.000001	0.000000	0.000000
2.221453	13.371418	22.894772	-1.142636	1.673679	2.757293	0.000000	0.218633	0.000000	0.000001	0.000001	0.000000	0.000000
2.662413	14.573170	21.201674	-1.593012	2.151284	2.870975	0.000000	0.297470	0.000000	0.000001	0.000001	0.000000	0.000000
3.108373	16.223361	19.104253	-2.120462	2.532138	3.021995	0.000000	0.380184	0.000000	0.000001	0.000001	0.000000	0.000000
3.657433	18.339431	16.748591	-1.710710	1.783541	3.205467	0.000000	0.287146	0.000000	0.000002	0.000001	0.000000	0.000000
4.206493	19.936123	15.140812	-1.180122	1.161982	3.336380	0.000000	0.189015	0.000000	0.000002	0.000001	0.000000	0.000000
4.755553	20.900655	14.166397	-0.566176	0.623189	3.412412	0.000000	0.087531	0.000000	0.000003	0.000001	0.000000	0.000000
5.304613	21.164898	13.755942	0.087762	0.128784	3.432214	0.000000	-0.015506	0.000000	0.000003	0.000000	0.000000	0.000000
5.603185	21.149729	13.664234	0.018341	0.142431	3.430262	0.000000	-0.006538	0.000000	0.000003	0.000000	0.000000	0.000000
5.936519	21.142757	13.577576	0.002575	0.117541	3.428082	0.000000	-0.006538	0.000000	0.000003	0.000000	0.000000	0.000000
6.269852	21.146295	13.507512	-0.013191	0.092652	3.425902	0.000000	-0.006538	0.000000	0.000003	0.000000	0.000000	0.000000
6.604435	21.160417	13.453871	-0.029016	0.067669	3.423715	0.000000	-0.006538	0.000000	0.000003	0.000000	0.000000	0.000000
6.901758	21.181852	13.420232	-0.098421	0.080532	3.421771	0.000000	0.002402	0.000000	0.000004	0.000001	0.000000	0.000000
7.450818	20.928894	13.592468	0.556405	-0.396075	3.394887	0.000000	-0.100182	0.000000	0.000004	0.000000	0.000000	0.000000
7.999878	19.974283	14.300403	1.171930	-0.900894	3.312085	0.000000	-0.200988	0.000000	0.000004	0.000000	0.000000	0.000000
8.548938	18.385449	15.594463	1.704675	-1.469882	3.174833	0.000000	-0.298230	0.000000	0.000004	0.000000	0.000000	0.000000
9.097998	16.274619	17.566821	2.117010	-2.143566	2.985564	0.000000	-0.390181	0.000000	0.000004	-0.000000	0.000000	0.000000
9.543958	14.627732	19.324321	1.589022	-1.780714	2.829866	0.000000	-0.308473	0.000000	0.000004	0.000000	0.000000	0.000000
9.984918	13.429802	20.704834	1.137925	-1.338072	2.711089	0.000000	-0.230761	0.000000	0.000004	0.000000	0.000000	0.000000
10.425878	12.605362	21.666533	0.738816	-0.834549	2.625968	0.000000	-0.155678	0.000000	0.000004	0.000000	0.000000	0.000000
10.866838	12.116746	22.165660	0.373461	-0.293054	2.573534	0.000000	-0.082367	0.000000	0.000005	0.000000	0.000000	0.000000
11.309048	11.941494	22.178988	0.054347	0.207327	2.553169	0.000000	-0.016256	0.000000	0.000005	0.000001	0.000000	0.000000
11.606371	11.916601	22.059859	0.029376	0.193345	2.548335	0.000000	-0.016256	0.000000	0.000005	0.000001	0.000000	0.000000
12.086371	11.907752	21.885083	-0.010939	0.170772	2.540532	0.000000	-0.016256	0.000000	0.000005	0.000001	0.000000	0.000000
12.566371	11.937604	21.731976	-0.051254	0.148200	2.532729	0.000000	-0.016256	0.000000	0.000005	0.000001	0.000000	0.000000
13.046371	12.006159	21.600539	-0.091569	0.125628	2.524926	0.000000	-0.016256	0.000000	0.000006	0.000001	0.000000	0.000000
13.526371	12.113416	21.490771	-0.131883	0.103055	2.517123	0.000000	-0.016256	0.000000	0.000006	0.000001	0.000000	0.000000
14.007621	12.259806	21.402472	-0.172303	0.080424	2.509299	0.000000	-0.016256	0.000000	0.000006	0.000001	0.000000	0.000000
14.304943	12.369689	21.358805	-0.166942	0.014067	2.504466	0.000000	-0.022397	0.000000	0.000006	0.000001	0.000000	0.000000
14.745903	12.675541	21.112612	-0.529293	0.542120	2.510222	0.000000	0.048531	0.000000	0.000007	0.000001	0.000000	0.000000
15.186863	13.310372	20.409857	-0.915825	1.045507	2.547347	0.000000	0.120012	0.000000	0.000007	0.000001	0.000000	0.000000
15.627823	14.303186	19.282516	-1.344199	1.501324	2.616263	0.000000	0.192859	0.000000	0.000007	0.000001	0.000000	0.000000
16.068783	15.699342	17.781882	-1.833985	1.888832	2.717755	0.000000	0.267904	0.000000	0.000008	0.000001	0.000000	0.000000
16.514743	17.586280	15.954729	-2.412319	2.191147	2.854674	0.000000	0.346461	0.000000	0.000009	0.000001	0.000000	0.000000
17.063803	20.009667	13.914476	-1.975254	1.546689	3.021168	0.000000	0.259120	0.000000	0.000009	0.000001	0.000000	0.000000
17.612863	21.873183	12.517629	-1.398667	1.012398	3.138373	0.000000	0.167182	0.000000	0.000010	0.000001	0.000000	0.000000
18.161923	23.045200	11.664694	-0.723285	0.550218	3.204209	0.000000	0.072279	0.000000	0.000010	0.000001	0.000000	0.000000
18.710983	23.442932	11.294918	0.003187	0.127228	3.217508	0.000000	-0.023907	0.000000	0.000010	0.000000	0.000000	0.000000
19.009556	23.481417	11.209410	-0.070839	0.129653	3.212879	0.000000	-0.015501	0.000000	0.000010	0.000000	0.000000	0.000000
19.342889	23.533399	11.133053	-0.085106	0.099417	3.207712	0.000000	-0.015501	0.000000	0.000011	0.000000	0.000000	0.000000
19.676223	23.594892	11.076854	-0.099373	0.069180	3.202546	0.000000	-0.015501	0.000000	0.000011	0.000000	0.000000	0.000000
20.010806	23.666473	11.040579	-0.230950	0.093531	3.197379	0.000000	0.000341	0.000000	0.000011	0.000000	0.000000	0.000000
20.308129	23.807741	10.993038	-0.306383	0.095086	3.197480	0.000000	0.008695	0.000000	0.000011	0.000000	0.000000	0.000000
20.857189	23.733567	11.110974	0.440676	-0.311149	3.176031	0.000000	-0.086710	0.000000	0.000011	-0.000000	0.000000	0.000000
21.406249	22.851341	11.684483	1.156607	-0.739547	3.102545	0.000000	-0.180576	0.000000	0.000011	-0.000000	0.000000	0.000000
21.955309	21.223377	12.754417	1.790841	-1.220620	2.978326	0.000000	-0.271239	0.000000	0.000010	-0.000001	0.000000	0.000000
22.504369	18.964669	14.396985	2.298580	-1.788636	2.805577	0.000000	-0.357091	0.000000	0.000010	-0.000001	0.000000	0.000000
22.950329	17.184669	15.871628	1.706899	-1.504085	2.663624	0.000000	-0.279873	0.000000	0.000010	-0.000001	0.000000	0.000000
23.391289	15.908609	17.047309	1.197899	-1.151955	2.556536	0.000000	-0.206296	0.000000	0.000009	-0.000001	0.000000	0.000000
23.832249	15.055709	17.888054	0.743628	-0.747412	2.481343	0.000000	-0.135069	0.000000	0.000009	-0.000000	0.000000	0.000000
24.273209	14.587001	18.355608	0.323331	-0.308862	2.437190	0.000000	-0.065380	0.000000	0.000009	-0.000000	0.000000	0.000000
24.715418	14.481188	18.428452	-0.046772	0.098483	2.423571	0.000000	-0.002379	0.000000	0.000009	0.000000	0.000000	0.000000
25.012741	14.515118	18.374733	-0.067348	0.082193	2.422864	0.000000	-0.002379	0.000000	0.000009	0.000000	0.000000	0.000000
25.346075	14.567707	18.326025	-0.090417	0.063929	2.422071	0.000000	-0.002379	0.000000	0.000009	0.000000	0.000000	0.000000
25.679408	14.635674	18.289494	-0.113486	0.045666	2.421277	0.000000	-0.002379	0.000000	0.000009	0.000000	0.000000	0.000000
26.013991	14.719064	18.265439	-0.017230	-0.120844	2.420457	0.000000	-0.022015	0.000000	0.000009	0.000000	0.000000	0.000000
26.311314	14.735318	18.342209	-0.001304	-0.182336	2.413911	0.000000	-0.027935	0.000000	0.000009	0.000000	0.000000	0.000000
26.752274	14.918026	18.304066	-0.414610	0.268507	2.416706	0.000000	0.040621	0.000000	0.000009	0.000000	0.000000	0.000000
27.193234	15.472181	17.872204	-0.846859	0.707134	2.449803	0.000000	0.109639	0.000000	0.000009	0.000000	0.000000	0.000000
27.634194	16.423101	17.066272	-1.317798	1.113587	2.513581	0.000000	0.179906	0.000000	0.000010	0.000001	0.000000	0.000000
28.075154	17.814231	15.922939	-1.848944	1.469372	2.608766	0.000000	0.252222	0.000000	0.000010	0.000001	0.000000	0.000000
28.521114	19.733297	14.477006	-2.469524	1.759215	2.738044	0.000000	0.327854	0.000000	0.000010	0.000001	0.000000	0.000000
29.070174	22.172445	12.865878	-1.946584	1.192442	2.895387	0.000000	0.244439	0.000000	0.000011	0.000001	0.000000	0.000000
29.619234	23.957978	11.827123	-1.286146	0.710605	3.005670	0.000000	0.156689	0.000000	0.000011	0.000001	0.000000	0.000000
30.168294	24.963774	11.286751	-0.534861	0.279381	3.066939	0.000000	0.066159	0.000000	0.000012	0.000000	0.000000	0.000000
30.717354	25.118790	11.206273	0.254203	-0.131942	3.078105	0.000000	-0.025544	0.000000	0.000012	-0.000000	0.000000	0.000000
31.015927	25.009856	11.275618	0.176270	-0.129589	3.072880	0.000000	-0.017502	0.000000	0.000012	-0.000000	0.000000	0.000000
31.349260	24.896923	11.372030	0.162528	-0.159648	3.067046	0.000000	-0.017502	0.000000	0.000012	-0.000000	0.000000	0.000000
31.682593	24.793152	11.488481	0.148786	-0.189707	3.061212	0.000000	-0.017502	0.000000	0.000011	-0.000000	0.000000	0.000000
32.017177	24.698205	11.625522	0.134992	-0.219878	3.055356	0.000000	-0.017502	0.000000	0.000011	-0.000000	0.000000	0.000000
32.314499	24.621577	11.764243	0.058409	-0.215955	3.050152	0.000000	-0.009533	0.000000	0.000011	-0.000000	0.000000	0.000000
32.863559	24.135621	12.240658	0.821421	-0.656859	3.020031	0.000000	-0.100024	0.000000	0.000011	-0.000001	0.000000	0.000000
33.412619	22.838844	13.223935	1.526411	-1.144550	2.940641	0.000000	-0.188740	0.000000	0.000011	-0.000001	0.000000	0.000000
33.961679	20.822843	14.784112	2.123584	-1.713764	2.813388	0.000000	-0.274108	0.000000	0.000010	-0.000001	0.000000	0.000000
34.510739	18.230019	17.032315	2.570757	-2.405046	2.640532	0.000000	-0.354614	0.000000	0.000009	-0.000002	0.000000	0.000000
34.956699	16.214050	19.043219	1.965954	-2.085283	2.498732	0.000000	-0.281675	0.000000	0.000009	-0.000001	0.000000	0.000000
35.397659	14.710818	20.706089	1.455978	-1.671388	2.389909	0.000000	-0.212371	0.000000	0.000008	-0.000001	0.000000	0.000000
35.838619	13.626422	21.968880	1.012521	-1.181446	2.311084	0.000000	-0.145487	0.000000	0.000008	-0.000001	0.000000	0.000000
36.279579	12.911320	22.774136	0.615324	-0.637749	2.261359	0.000000	-0.080259	0.000000	0.000008	-0.000001	0.000000	0.000000
36.721789	12.532148	23.085524	0.276864	-0.121698	2.240141	0.000000	-0.021439	0.000000	0.000007	-0.000000	0.000000	0.000000
37.019112	12.375107	23.161777	0.251321	-0.134768	2.233767	0.000000	-0.021439	0.000000	0.000007	-0.000000	0.000000	0.000000
37.352445	12.217105	23.256507	0.222684	-0.149421	2.226621	0.000000	-0.021439	0.000000	0.000007	-0.000000	0.000000	0.000000
37.685779	12.078195	23.361005	0.194047	-0.164074	2.219475	0.000000	-0.021439	0.000000	0.000007	-0.000000	0.000000	0.000000
38.020362	11.957963	23.475718	0.165302	-0.178782	2.212302	0.000000	-0.021439	0.000000	0.000007	-0.000000	0.000000	0.000000
38.317684	11.867262	23.585916	0.168859	-0.249688	2.205928	0.000000	-0.026848	0.000000	0.000006	-0.000001	0.000000	0.000000
38.758644	11.869672	23.544887	-0.174345	0.342378	2.208018	0.000000	0.036337	0.000000	0.000006	-0.000000	0.000000	0.000000
39.199604	12.177115	22.986604	-0.525513	0.918867	2.238035	0.000000	0.099935	0.000000	0.000006	-0.000000	0.000000	0.000000
39.640564	12.803637	21.936468	-0.900691	1.453547	2.296320	0.000000	0.164672	0.000000	0.000006	-0.000000	0.000000	0.000000
40.081524	13.777863	20.442260	-1.317019	1.922092	2.383537	0.000000	0.231284	0.000000	0.000006	0.000000	0.000000	0.000000
40.527484	15.161872	18.549397	-1.797343	2.304465	2.502152	0.000000	0.300935	0.000000	0.000006	0.000000	0.000000	0.000000
41.076544	16.928140	16.422343	-1.400508	1.592394	2.646851	0.000000	0.225369	0.000000	0.000006	0.000000	0.000000	0.000000
41.625604	18.201401	15.010729	-0.904748	0.993746	2.748900	0.000000	0.145805	0.000000	0.000006	-0.000000	0.000000	0.000000
42.174664	18.891719	14.214010	-0.345081	0.465880	2.806488	0.000000	0.063655	0.000000	0.000006	-0.000000	0.000000	0.000000
42.723724	18.950333	13.975436	0.238961	-0.028802	2.818594	0.000000	-0.019625	0.000000	0.000006	-0.000001	0.000000	0.000000
43.022297	18.842077	13.977210	0.173128	-0.013654	2.814933	0.000000	-0.012260	0.000000	0.000006	-0.000001	0.000000	0.000000
43.502297	18.688468	14.006805	0.146890	-0.048002	2.809048	0.000000	-0.012260	0.000000	0.000006	-0.000001	0.000000	0.000000
43.982297	18.560048	14.069374	0.120651	-0.082350	2.803163	0.000000	-0.012260	0.000000	0.000005	-0.000001	0.000000	0.000000
44.462297	18.456817	14.164917	0.094413	-0.116698	2.797279	0.000000	-0.012260	0.000000	0.000005	-0.000001	0.000000	0.000000
44.942297	18.378776	14.293434	0.068174	-0.151046	2.791394	0.000000	-0.012260	0.000000	0.000005	-0.000001	0.000000	0.000000
45.423547	18.326045	14.455210	-0.048930	-0.113863	2.785511	0.000000	0.001541	0.000000	0.000005	-0.000000	0.000000	0.000000
45.720870	18.359976	14.529113	-0.113162	-0.096738	2.785969	0.000000	0.008820	0.000000	0.000004	-0.000000	0.000000	0.000000
46.269930	18.175091	14.916387	0.447898	-0.612764	2.768238	0.000000	-0.073312	0.000000	0.000004	-0.000001	0.000000	0.000000
46.818990	17.387900	15.890817	0.977321	-1.172436	2.705704	0.000000	-0.154142	0.000000	0.000004	-0.000001	0.000000	0.000000
47.368050	16.054007	17.521810	1.437711	-1.815617	2.599475	0.000000	-0.232239	0.000000	0.000003	-0.000001	0.000000	0.000000
47.917110	14.267630	19.925538	1.796548	-2.588121	2.451435	0.000000	-0.306216	0.000000	0.000003	-0.000001	0.000000	0.000000
48.363070	12.877422	22.062711	1.331834	-2.184028	2.330168	0.000000	-0.237915	0.000000	0.000002	-0.000001	0.000000	0.000000
48.804030	11.883050	23.773913	0.931736	-1.681835	2.239718	0.000000	-0.172720	0.000000	0.000002	-0.000001	0.000000	0.000000
49.244990	11.221499	25.006658	0.574207	-1.103119	2.177555	0.000000	-0.109493	0.000000	0.000002	-0.000001	0.000000	0.000000
49.685950	10.862545	25.704855	0.242911	-0.474213	2.142972	0.000000	-0.047512	0.000000	0.000001	-0.000001	0.000000	0.000000
50.128160	10.789914	25.836455	-0.050943	0.112863	2.135585	0.000000	0.008690	0.000000	0.000001	-0.000001	0.000000	0.000000
50.425482	10.828421	25.772806	-0.078570	0.101209	2.138169	0.000000	0.008690	0.000000	0.000001	-0.000001	0.000000	0.000000
50.758816	10.891126	25.709689	-0.109544	0.088143	2.141066	0.000000	0.008690	0.000000	0.000001	-0.000001	0.000000	0.000000
51.092149	10.974479	25.655283	-0.140517	0.075077	2.143963	0.000000	0.008690	0.000000	0.000000	-0.000001	0.000000	0.000000
51.426732	11.078686	25.609952	-0.081729	-0.145799	2.146849	0.000000	-0.008726	0.000000	0.000000	-0.000001	0.000000	0.000000
51.724055	11.135318	25.700176	-0.081438	-0.220680	2.144254	0.000000	-0.013985	0.000000	-0.000000	-0.000001	0.000000	0.000000
52.165015	11.352516	25.608889	-0.412987	0.426911	2.151676	0.000000	0.047679	0.000000	-0.000000	-0.000001	0.000000	0.000000
52.605975	11.869296	24.952895	-0.763403	1.055078	2.186383	0.000000	0.109885	0.000000	-0.000001	-0.000001	0.000000	0.000000
53.046935	12.709269	23.762041	-1.148697	1.635239	2.248770	0.000000	0.173343	0.000000	-0.000001	-0.000001	0.000000	0.000000
53.487895	13.910811	22.090510	-1.586472	2.140999	2.339548	0.000000	0.238775	0.000000	-0.000001	-0.000001	0.000000	0.000000
53.933855	15.549411	19.989362	-2.100961	2.550680	2.461255	0.000000	0.307326	0.000000	-0.000002	-0.000001	0.000000	0.000000
54.482915	17.659034	17.625079	-1.718540	1.780794	2.609816	0.000000	0.233022	0.000000	-0.000002	-0.000001	0.000000	0.000000
55.031975	19.279165	16.032028	-1.214730	1.137749	2.716382	0.000000	0.154585	0.000000	-0.000003	-0.000001	0.000000	0.000000
55.581035	20.295367	15.096738	-0.625117	0.575743	2.779065	0.000000	0.073405	0.000000	-0.000003	-0.000001	0.000000	0.000000
56.130095	20.635859	14.752593	0.008651	0.054747	2.796752	0.000000	-0.009076	0.000000	-0.000003	-0.000000	0.000000	0.000000
56.428668	20.667219	14.702979	-0.059766	0.072879	2.796224	0.000000	-0.001768	0.000000	-0.000003	-0.000001	0.000000	0.000000
56.762001	20.712459	14.661990	-0.075953	0.050087	2.795635	0.000000	-0.001768	0.000000	-0.000004	-0.000001	0.000000	0.000000
57.095334	20.768489	14.636196	-0.092139	0.027296	2.795046	0.000000	-0.001768	0.000000	-0.000004	-0.000001	0.000000	0.000000
57.429918	20.835582	14.625585	-0.108386	0.004419	2.794454	0.000000	-0.001768	0.000000	-0.000004	-0.000001	0.000000	0.000000
57.727240	20.904325	14.629002	-0.177444	0.022313	2.793929	0.000000	0.005532	0.000000	-0.000004	-0.000001	0.000000	0.000000
58.276300	20.742522	14.885446	0.470391	-0.492131	2.774328	0.000000	-0.076827	0.000000	-0.000004	-0.000000	0.000000	0.000000
58.825360	19.883434	15.722631	1.084999	-1.041629	2.709815	0.000000	-0.157822	0.000000	-0.000004	-0.000000	0.000000	0.000000
59.374420	18.387743	17.200187	1.622969	-1.665320	2.601534	0.000000	-0.236019	0.000000	-0.000005	-0.000000	0.000000	0.000000
59.923480	16.361097	19.423356	2.046301	-2.407628	2.451406	0.000000	-0.310029	0.000000	-0.000005	0.000000	0.000000	0.000000
60.369440	14.774819	21.399362	1.523293	-2.004574	2.328435	0.000000	-0.241751	0.000000	-0.000005	-0.000000	0.000000	0.000000
60.810400	13.633807	22.955814	1.074087	-1.511686	2.236280	0.000000	-0.176623	0.000000	-0.000005	-0.000000	0.000000	0.000000
61.251360	12.865903	24.045473	0.673954	-0.950017	2.172373	0.000000	-0.113506	0.000000	-0.000005	-0.000000	0.000000	0.000000
61.692320	12.436026	24.618760	0.304612	-0.345123	2.135987	0.000000	-0.051683	0.000000	-0.000005	-0.000000	0.000000	0.000000
62.134530	12.324586	24.649053	-0.020690	0.214969	2.126712	0.000000	0.004337	0.000000	-0.000005	-0.000001	0.000000	0.000000
62.431853	12.344065	24.524974	-0.044825	0.202350	2.128002	0.000000	0.004337	0.000000	-0.000005	-0.000001	0.000000	0.000000
62.765186	12.382968	24.394791	-0.071883	0.188201	2.129448	0.000000	0.004337	0.000000	-0.000005	-0.000001	0.000000	0.000000
63.098520	12.439909	24.274039	-0.098941	0.174053	2.130893	0.000000	0.004337	0.000000	-0.000006	-0.000001	0.000000	0.000000
63.433103	12.515204	24.162320	-0.126100	0.159852	2.132345	0.000000	0.004337	0.000000	-0.000006	-0.000001	0.000000	0.000000
63.730426	12.597364	24.071017	-0.119340	0.088200	2.133634	0.000000	-0.000896	0.000000	-0.000006	-0.000001	0.000000	0.000000
64.171386	12.863012	23.728129	-0.485375	0.686434	2.146778	0.000000	0.060567	0.000000	-0.000006	-0.000001	0.000000	0.000000
64.612346	13.459994	22.869457	-0.873585	1.253436	2.187151	0.000000	0.122721	0.000000	-0.000007	-0.000001	0.000000	0.000000
65.053306	14.415585	21.534068	-1.301707	1.763408	2.255214	0.000000	0.186271	0.000000	-0.000007	-0.000001	0.000000	0.000000
65.494266	15.773443	19.782721	-1.789299	2.193146	2.351740	0.000000	0.251944	0.000000	-0.000007	-0.000001	0.000000	0.000000
65.940226	17.618769	17.670316	-2.363333	2.523853	2.479402	0.000000	0.320888	0.000000	-0.000008	-0.000001	0.000000	0.000000
66.489286	19.984230	15.307154	-1.919367	1.805567	2.635226	0.000000	0.245878	0.000000	-0.000009	-0.000001	0.000000	0.000000
67.038346	21.784379	13.657929	-1.339827	1.215888	2.748606	0.000000	0.166507	0.000000	-0.000009	-0.000001	0.000000	0.000000
67.587406	22.892061	12.605169	-0.665648	0.712814	2.817529	0.000000	0.084183	0.000000	-0.000010	-0.000001	0.000000	0.000000
68.136466	23.229037	12.073890	0.055548	0.260513	2.840775	0.000000	0.000365	0.000000	-0.000010	-0.000000	0.000000	0.000000
68.435038	23.235950	11.907500	-0.018004	0.265224	2.843100	0.000000	0.007788	0.000000	-0.000010	-0.000000	0.000000	0.000000
68.768372	23.252736	11.740672	-0.032354	0.235261	2.845697	0.000000	0.007788	0.000000	-0.000010	-0.000000	0.000000	0.000000
69.101705	23.279089	11.593818	-0.046704	0.205298	2.848293	0.000000	0.007788	0.000000	-0.000010	-0.000000	0.000000	0.000000
69.436288	23.315161	11.466502	-0.061108	0.175223	2.850899	0.000000	0.007788	0.000000	-0.000010	-0.000000	0.000000	0.000000
69.733611	23.355304	11.370253	-0.134936	0.178208	2.853215	0.000000	0.015244	0.000000	-0.000010	-0.000000	0.000000	0.000000
70.282671	23.102371	11.402229	0.592876	-0.236790	2.838404	0.000000	-0.069113	0.000000	-0.000010	0.000000	0.000000	0.000000
