#ParticleID	Turn	x[m]	xp	y[m]	yp	z[m]	dE[GeV]# s	beta_x	beta_y	alpha_x	alpha_y	D_x	D_y	D_px	D_py	orbit_x	orbit_px	orbit_y	orbit_py
0.300000	11.827129	24.965181	-0.012694	-0.027700	2.618181	0.000000	-0.000013	0.000000	-0.000000	0.000000	0.000000	0.000000
0.601250	11.842451	24.985508	-0.038169	-0.039776	2.618177	0.000000	-0.000013	0.000000	-0.000000	0.000000	0.000000	0.000000
0.898573	11.872624	25.012704	-0.034197	-0.113033	2.618173	0.000000	-0.006433	0.000000	-0.000000	0.000000	0.000000	0.000000
1.339533	12.055078	24.834961	-0.381138	0.514581	2.631629	0.000000	0.067525	0.000000	0.000000	0.000000	0.000000	0.000000
1.780493	12.549999	24.111963	-0.745491	1.118781	2.677837	0.000000	0.142253	0.000000	0.000000	0.000000	0.000000	0.000000
2.221453	13.379998	22.876605	-1.143904	1.672078	2.757323	0.000000	0.218601	0.000000	0.000000	0.000000	0.000000	0.000000
2.662413	14.582996	21.185095	-1.594579	2.149297	2.870991	0.000000	0.297438	0.000000	0.000000	0.000000	0.000000	0.000000
3.108373	16.234746	19.089586	-2.122403	2.529854	3.021997	0.000000	0.380153	0.000000	0.000001	0.000000	0.000000	0.000000
3.657433	18.352802	16.736107	-1.712365	1.781826	3.205452	0.000000	0.287115	0.000000	0.000001	0.000000	0.000000	0.000000
4.206493	19.951100	15.129957	-1.181374	1.160713	3.336349	0.000000	0.188985	0.000000	0.000001	0.000000	0.000000	0.000000
4.755553	20.916743	14.156734	-0.566937	0.622275	3.412364	0.000000	0.087502	0.000000	0.000001	0.000000	0.000000	0.000000
5.304613	21.181525	13.747118	0.087546	0.128160	3.432151	0.000000	-0.015533	0.000000	0.000001	0.000000	0.000000	0.000000
5.603185	21.166508	13.655799	0.018093	0.141775	3.430191	0.000000	-0.006565	0.000000	0.000001	0.000000	0.000000	0.000000
5.936519	21.159697	13.569582	0.002340	0.116875	3.428002	0.000000	-0.006565	0.000000	0.000001	0.000000	0.000000	0.000000
6.269852	21.163388	13.499966	-0.013414	0.091974	3.425814	0.000000	-0.006565	0.000000	0.000001	0.000000	0.000000	0.000000
6.604435	21.177654	13.446782	-0.029226	0.066981	3.423617	0.000000	-0.006565	0.000000	0.000001	0.000000	0.000000	0.000000
6.901758	21.199211	13.413556	-0.098666	0.079817	3.421665	0.000000	0.002375	0.000000	0.000002	0.000000	0.000000	0.000000
7.450818	20.946202	13.586476	0.556743	-0.396614	3.394768	0.000000	-0.100205	0.000000	0.000002	0.000000	0.000000	0.000000
7.999878	19.990908	14.294924	1.172828	-0.901295	3.311954	0.000000	-0.201008	0.000000	0.000002	0.000000	0.000000	0.000000
8.548938	18.400809	15.589362	1.706069	-1.470173	3.174692	0.000000	-0.298245	0.000000	0.000002	0.000000	0.000000	0.000000
9.097998	16.288219	17.561989	2.118802	-2.143769	2.985417	0.000000	-0.390192	0.000000	0.000002	0.000000	0.000000	0.000000
9.543958	14.639916	19.319752	1.590417	-1.781098	2.829713	0.000000	-0.308487	0.000000	0.000002	0.000000	0.000000	0.000000
9.984918	13.440905	20.700676	1.138989	-1.338618	2.710929	0.000000	-0.230779	0.000000	0.000002	0.000000	0.000000	0.000000
10.425878	12.615654	21.662918	0.739599	-0.835232	2.625799	0.000000	-0.155700	0.000000	0.000002	0.000000	0.000000	0.000000
10.866838	12.126458	22.162697	0.373998	-0.293843	2.573354	0.000000	-0.082394	0.000000	0.000002	0.000000	0.000000	0.000000
11.309048	11.950831	22.176757	0.054686	0.206472	2.552976	0.000000	-0.016287	0.000000	0.000002	0.000000	0.000000	0.000000
11.606371	11.925731	22.058135	0.029733	0.192493	2.548133	0.000000	-0.016287	0.000000	0.000002	0.000000	0.000000	0.000000
12.086371	11.916524	21.884174	-0.010552	0.169926	2.540315	0.000000	-0.016287	0.000000	0.000002	0.000000	0.000000	0.000000
12.566371	11.945990	21.731877	-0.050836	0.147359	2.532497	0.000000	-0.016287	0.000000	0.000002	0.000000	0.000000	0.000000
13.046371	12.014130	21.601244	-0.091121	0.124792	2.524679	0.000000	-0.016287	0.000000	0.000002	0.000000	0.000000	0.000000
13.526371	12.120943	21.492276	-0.131406	0.102225	2.516861	0.000000	-0.016287	0.000000	0.000003	0.000000	0.000000	0.000000
14.007621	12.266858	21.404773	-0.171795	0.079599	2.509022	0.000000	-0.016287	0.000000	0.000003	0.000000	0.000000	0.000000
14.304943	12.376434	21.361596	-0.166399	0.013237	2.504180	0.000000	-0.022428	0.000000	0.000003	0.000000	0.000000	0.000000
14.745903	12.681868	21.116096	-0.528885	0.541384	2.509921	0.000000	0.048492	0.000000	0.000003	0.000000	0.000000	0.000000
15.186863	13.316393	20.413937	-0.915535	1.044898	2.547027	0.000000	0.119965	0.000000	0.000003	0.000000	0.000000	0.000000
15.627823	14.308998	19.287067	-1.344013	1.500870	2.615920	0.000000	0.192804	0.000000	0.000003	0.000000	0.000000	0.000000
16.068783	15.705032	17.786757	-1.833896	1.888554	2.717386	0.000000	0.267839	0.000000	0.000003	0.000001	0.000000	0.000000
16.514743	17.591932	15.959769	-2.412321	2.191058	2.854274	0.000000	0.346387	0.000000	0.000004	0.000001	0.000000	0.000000
17.063803	20.015184	13.919662	-1.975008	1.546510	3.020732	0.000000	0.259059	0.000000	0.000004	0.000001	0.000000	0.000000
17.612863	21.878301	12.523066	-1.398190	1.012116	3.137908	0.000000	0.167136	0.000000	0.000004	0.000000	0.000000	0.000000
18.161923	23.049683	11.670506	-0.722612	0.549812	3.203722	0.000000	0.072248	0.000000	0.000004	0.000000	0.000000	0.000000
18.710983	23.446589	11.301256	0.004009	0.126671	3.217009	0.000000	-0.023921	0.000000	0.000004	0.000000	0.000000	0.000000
19.009556	23.484590	11.216063	-0.070026	0.129134	3.212376	0.000000	-0.015516	0.000000	0.000004	0.000000	0.000000	0.000000
19.342889	23.536029	11.140046	-0.084290	0.098919	3.207204	0.000000	-0.015516	0.000000	0.000005	0.000000	0.000000	0.000000
19.676223	23.596976	11.084171	-0.098553	0.068704	3.202032	0.000000	-0.015516	0.000000	0.000005	0.000000	0.000000	0.000000
20.010806	23.668008	11.048207	-0.230134	0.093116	3.196860	0.000000	0.000323	0.000000	0.000005	0.000000	0.000000	0.000000
20.308129	23.808789	11.000907	-0.305567	0.094713	3.196956	0.000000	0.008676	0.000000	0.000005	0.000000	0.000000	0.000000
20.857189	23.733704	11.119375	0.441508	-0.311752	3.175501	0.000000	-0.086712	0.000000	0.000005	-0.000000	0.000000	0.000000
21.406249	22.850581	11.693691	1.157398	-0.740422	3.102019	0.000000	-0.180561	0.000000	0.000005	-0.000000	0.000000	0.000000
21.955309	21.221798	12.764764	1.791535	-1.221831	2.977812	0.000000	-0.271207	0.000000	0.000004	-0.000000	0.000000	0.000000
22.504369	18.962405	14.408882	2.299126	-1.790268	2.805084	0.000000	-0.357043	0.000000	0.000004	-0.000000	0.000000	0.000000
22.950329	17.181922	15.884865	1.707441	-1.505445	2.663150	0.000000	-0.279837	0.000000	0.000004	-0.000000	0.000000	0.000000
23.391289	15.905378	17.061603	1.198461	-1.152981	2.556075	0.000000	-0.206272	0.000000	0.000004	-0.000000	0.000000	0.000000
23.832249	15.051965	17.903087	0.744235	-0.748058	2.480890	0.000000	-0.135057	0.000000	0.000004	-0.000000	0.000000	0.000000
24.273209	14.582692	18.371032	0.324011	-0.309099	2.436740	0.000000	-0.065380	0.000000	0.000004	-0.000000	0.000000	0.000000
24.715418	14.476233	18.443900	-0.045998	0.098626	2.423118	0.000000	-0.002390	0.000000	0.000004	0.000000	0.000000	0.000000
25.012741	14.509705	18.390091	-0.066580	0.082349	2.422407	0.000000	-0.002390	0.000000	0.000004	0.000000	0.000000	0.000000
25.346075	14.561784	18.341275	-0.089655	0.064101	2.421611	0.000000	-0.002390	0.000000	0.000004	0.000000	0.000000	0.000000
25.679408	14.629245	18.304624	-0.112730	0.045852	2.420814	0.000000	-0.002390	0.000000	0.000004	0.000000	0.000000	0.000000
26.013991	14.712132	18.280441	-0.016537	-0.120765	2.419990	0.000000	-0.022022	0.000000	0.000004	0.000000	0.000000	0.000000
26.311314	14.727976	18.357159	-0.000636	-0.182282	2.413442	0.000000	-0.027941	0.000000	0.000004	0.000000	0.000000	0.000000
26.752274	14.910013	18.318790	-0.413751	0.268965	2.416231	0.000000	0.040603	0.000000	0.000004	0.000000	0.000000	0.000000
27.193234	15.463312	17.886353	-0.845769	0.707974	2.449318	0.000000	0.109608	0.000000	0.000004	0.000000	0.000000	0.000000
27.634194	16.413151	17.079524	-1.316428	1.114772	2.513080	0.000000	0.179862	0.000000	0.000004	0.000000	0.000000	0.000000
28.075154	17.802926	15.935014	-1.847231	1.470848	2.608243	0.000000	0.252165	0.000000	0.000004	0.000000	0.000000	0.000000
28.521114	19.720282	14.487660	-2.467387	1.760915	2.737493	0.000000	0.327783	0.000000	0.000005	0.000001	0.000000	0.000000
29.070174	22.157250	12.874896	-1.944776	1.193741	2.894802	0.000000	0.244387	0.000000	0.000005	0.000000	0.000000	0.000000
29.619234	23.941039	11.834892	-1.284796	0.711595	3.005063	0.000000	0.156656	0.000000	0.000005	0.000000	0.000000	0.000000
30.168294	24.945649	11.293569	-0.534065	0.280134	3.066319	0.000000	0.066146	0.000000	0.000005	0.000000	0.000000	0.000000
30.717354	25.100122	11.212370	0.254390	-0.131374	3.077484	0.000000	-0.025537	0.000000	0.000005	-0.000000	0.000000	0.000000
31.015927	24.991053	11.281360	0.176492	-0.128986	3.072260	0.000000	-0.017496	0.000000	0.000005	-0.000000	0.000000	0.000000
31.349260	24.877976	11.377363	0.162738	-0.159025	3.066428	0.000000	-0.017496	0.000000	0.000005	-0.000000	0.000000	0.000000
31.682593	24.774068	11.493393	0.148985	-0.189064	3.060596	0.000000	-0.017496	0.000000	0.000005	-0.000000	0.000000	0.000000
32.017177	24.678992	11.629996	0.135179	-0.219215	3.054742	0.000000	-0.017496	0.000000	0.000005	-0.000000	0.000000	0.000000
32.314499	24.602256	11.768318	0.058633	-0.215262	3.049540	0.000000	-0.009528	0.000000	0.000005	-0.000000	0.000000	0.000000
32.863559	24.116407	12.244018	0.821001	-0.656243	3.019428	0.000000	-0.099999	0.000000	0.000005	-0.000000	0.000000	0.000000
33.412619	22.820433	13.226641	1.525378	-1.143966	2.940056	0.000000	-0.188696	0.000000	0.000005	-0.000000	0.000000	0.000000
33.961679	20.805873	14.786176	2.122009	-1.713172	2.812832	0.000000	-0.274046	0.000000	0.000004	-0.000001	0.000000	0.000000
34.510739	18.215026	17.033706	2.568753	-2.404404	2.640014	0.000000	-0.354535	0.000000	0.000004	-0.000001	0.000000	0.000000
34.956699	16.200640	19.043983	1.964395	-2.084525	2.498247	0.000000	-0.281608	0.000000	0.000004	-0.000001	0.000000	0.000000
35.397659	14.698615	20.706146	1.454790	-1.670550	2.389450	0.000000	-0.212317	0.000000	0.000004	-0.000000	0.000000	0.000000
35.838619	13.615124	21.968177	1.011650	-1.180566	2.310646	0.000000	-0.145444	0.000000	0.000003	-0.000000	0.000000	0.000000
36.279579	12.900666	22.772654	0.614729	-0.636868	2.260938	0.000000	-0.080227	0.000000	0.000003	-0.000000	0.000000	0.000000
36.721789	12.521908	23.083277	0.276495	-0.120852	2.239732	0.000000	-0.021417	0.000000	0.000003	-0.000000	0.000000	0.000000
37.019112	12.365091	23.159026	0.250935	-0.133920	2.233364	0.000000	-0.021417	0.000000	0.000003	-0.000000	0.000000	0.000000
37.352445	12.207352	23.253190	0.222280	-0.148572	2.226226	0.000000	-0.021417	0.000000	0.000003	-0.000000	0.000000	0.000000
37.685779	12.068717	23.357122	0.193625	-0.163223	2.219087	0.000000	-0.021417	0.000000	0.000003	-0.000000	0.000000	0.000000
38.020362	11.948773	23.471266	0.164863	-0.177929	2.211921	0.000000	-0.021417	0.000000	0.000003	-0.000000	0.000000	0.000000
38.317684	11.858338	23.580956	0.168383	-0.248824	2.205553	0.000000	-0.026825	0.000000	0.000003	-0.000000	0.000000	0.000000
38.758644	11.861079	23.539226	-0.174622	0.343099	2.207652	0.000000	0.036350	0.000000	0.000003	-0.000000	0.000000	0.000000
39.199604	12.168684	22.980383	-0.525606	0.919411	2.237672	0.000000	0.099939	0.000000	0.000003	-0.000000	0.000000	0.000000
39.640564	12.795208	21.929855	-0.900602	1.453891	2.295957	0.000000	0.164666	0.000000	0.000003	-0.000000	0.000000	0.000000
40.081524	13.769274	20.435438	-1.316745	1.922219	2.383169	0.000000	0.231269	0.000000	0.000003	0.000000	0.000000	0.000000
40.527484	15.152951	18.542562	-1.796870	2.304368	2.501775	0.000000	0.300911	0.000000	0.000003	0.000000	0.000000	0.000000
41.076544	16.918879	16.415525	-1.400365	1.592460	2.646465	0.000000	0.225357	0.000000	0.000003	0.000000	0.000000	0.000000
41.625604	18.192170	15.003747	-0.904945	0.993980	2.748510	0.000000	0.145805	0.000000	0.000003	-0.000000	0.000000	0.000000
42.174664	18.882885	14.206671	-0.345605	0.466299	2.806101	0.000000	0.063668	0.000000	0.000003	-0.000000	0.000000	0.000000
42.723724	18.942237	13.967523	0.238148	-0.028169	2.818217	0.000000	-0.019599	0.000000	0.000003	-0.000000	0.000000	0.000000
43.022297	18.834456	13.968934	0.172333	-0.013052	2.814564	0.000000	-0.012236	0.000000	0.000003	-0.000000	0.000000	0.000000
43.502297	18.681612	13.997961	0.146091	-0.047420	2.808691	0.000000	-0.012236	0.000000	0.000002	-0.000000	0.000000	0.000000
43.982297	18.553961	14.059981	0.119849	-0.081788	2.802818	0.000000	-0.012236	0.000000	0.000002	-0.000000	0.000000	0.000000
44.462297	18.451503	14.154994	0.093607	-0.116156	2.796945	0.000000	-0.012236	0.000000	0.000002	-0.000000	0.000000	0.000000
44.942297	18.374236	14.283000	0.067365	-0.150524	2.791072	0.000000	-0.012236	0.000000	0.000002	-0.000000	0.000000	0.000000
45.423547	18.322287	14.444283	-0.049725	-0.113415	2.785200	0.000000	0.001564	0.000000	0.000002	-0.000000	0.000000	0.000000
45.720870	18.356692	14.517923	-0.113954	-0.096332	2.785665	0.000000	0.008842	0.000000	0.000002	-0.000000	0.000000	0.000000
46.269930	18.172731	14.904561	0.447018	-0.612005	2.767949	0.000000	-0.073280	0.000000	0.000002	-0.000000	0.000000	0.000000
46.818990	17.386526	15.877940	0.976416	-1.171270	2.705434	0.000000	-0.154101	0.000000	0.000002	-0.000000	0.000000	0.000000
47.368050	16.053611	17.507393	1.436844	-1.813961	2.599230	0.000000	-0.232190	0.000000	0.000002	-0.000000	0.000000	0.000000
47.917110	14.268137	19.908981	1.795781	-2.585858	2.451219	0.000000	-0.306160	0.000000	0.000001	-0.000000	0.000000	0.000000
48.363070	12.878584	22.044289	1.331127	-2.182127	2.329976	0.000000	-0.237863	0.000000	0.000001	-0.000000	0.000000	0.000000
48.804030	11.884821	23.754006	0.931057	-1.680381	2.239547	0.000000	-0.172673	0.000000	0.000001	-0.000000	0.000000	0.000000
49.244990	11.223869	24.985690	0.573523	-1.102179	2.177404	0.000000	-0.109450	0.000000	0.000001	-0.000000	0.000000	0.000000
49.685950	10.865530	25.683301	0.242193	-0.473829	2.142838	0.000000	-0.047473	0.000000	0.000001	-0.000000	0.000000	0.000000
50.128160	10.793563	25.814816	-0.051720	0.112725	2.135468	0.000000	0.008726	0.000000	0.000001	-0.000000	0.000000	0.000000
50.425482	10.832530	25.751252	-0.079340	0.101062	2.138063	0.000000	0.008726	0.000000	0.000000	-0.000000	0.000000	0.000000
50.758816	10.895745	25.688237	-0.110306	0.087985	2.140972	0.000000	0.008726	0.000000	0.000000	-0.000000	0.000000	0.000000
51.092149	10.979604	25.633939	-0.141271	0.074908	2.143880	0.000000	0.008726	0.000000	0.000000	-0.000000	0.000000	0.000000
51.426732	11.084313	25.588723	-0.082429	-0.145805	2.146778	0.000000	-0.008690	0.000000	0.000000	-0.000000	0.000000	0.000000
51.724055	11.141358	25.678954	-0.082113	-0.220644	2.144195	0.000000	-0.013948	0.000000	0.000000	-0.000000	0.000000	0.000000
52.165015	11.359217	25.587883	-0.413817	0.426386	2.151633	0.000000	0.047714	0.000000	-0.000000	-0.000000	0.000000	0.000000
52.605975	11.876811	24.932592	-0.764426	1.054016	2.186355	0.000000	0.109920	0.000000	-0.000000	-0.000000	0.000000	0.000000
53.046935	12.717788	23.742894	-1.149960	1.633689	2.248757	0.000000	0.173377	0.000000	-0.000000	-0.000000	0.000000	0.000000
53.487895	13.920570	22.072920	-1.588032	2.139031	2.339549	0.000000	0.238809	0.000000	-0.000001	-0.000000	0.000000	0.000000
53.933855	15.560723	19.973682	-2.102893	2.548383	2.461271	0.000000	0.307360	0.000000	-0.000001	-0.000000	0.000000	0.000000
54.482915	17.672323	17.611584	-1.720188	1.779088	2.609850	0.000000	0.233055	0.000000	-0.000001	-0.000000	0.000000	0.000000
55.031975	19.294054	16.020138	-1.215977	1.136513	2.716434	0.000000	0.154616	0.000000	-0.000001	-0.000000	0.000000	0.000000
55.581035	20.311364	15.085988	-0.625876	0.574890	2.779134	0.000000	0.073435	0.000000	-0.000001	-0.000000	0.000000	0.000000
56.130095	20.652395	14.742599	0.008434	0.054215	2.796836	0.000000	-0.009048	0.000000	-0.000001	-0.000000	0.000000	0.000000
56.428668	20.683907	14.693321	-0.060014	0.072309	2.796316	0.000000	-0.001741	0.000000	-0.000001	-0.000000	0.000000	0.000000
56.762001	20.729308	14.652717	-0.076188	0.049504	2.795736	0.000000	-0.001741	0.000000	-0.000001	-0.000000	0.000000	0.000000
57.095334	20.785491	14.627316	-0.092362	0.026699	2.795156	0.000000	-0.001741	0.000000	-0.000002	-0.000000	0.000000	0.000000
57.429918	20.852728	14.617108	-0.108596	0.003809	2.794574	0.000000	-0.001741	0.000000	-0.000002	-0.000000	0.000000	0.000000
57.727240	20.921594	14.620891	-0.177687	0.021670	2.794056	0.000000	0.005560	0.000000	-0.000002	-0.000000	0.000000	0.000000
58.276300	20.759738	14.877916	0.470728	-0.492552	2.774469	0.000000	-0.076803	0.000000	-0.000002	-0.000000	0.000000	0.000000
58.825360	19.899970	15.715456	1.085894	-1.041859	2.709968	0.000000	-0.157804	0.000000	-0.000002	-0.000000	0.000000	0.000000
59.374420	18.403019	17.193167	1.624357	-1.665374	2.601696	0.000000	-0.236006	0.000000	-0.000002	-0.000000	0.000000	0.000000
59.923480	16.374621	19.416302	2.048084	-2.407511	2.451574	0.000000	-0.310021	0.000000	-0.000002	0.000000	0.000000	0.000000
60.369440	14.786933	21.392305	1.524681	-2.004685	2.328607	0.000000	-0.241738	0.000000	-0.000002	-0.000000	0.000000	0.000000
60.810400	13.644845	22.948954	1.075147	-1.512018	2.236459	0.000000	-0.176606	0.000000	-0.000002	-0.000000	0.000000	0.000000
61.251360	12.876134	24.038999	0.674733	-0.950557	2.172560	0.000000	-0.113485	0.000000	-0.000002	-0.000000	0.000000	0.000000
61.692320	12.445680	24.612844	0.305146	-0.345845	2.136185	0.000000	-0.051656	0.000000	-0.000002	-0.000000	0.000000	0.000000
62.134530	12.333866	24.643844	-0.020354	0.214113	2.126923	0.000000	0.004368	0.000000	-0.000002	-0.000000	0.000000	0.000000
62.431853	12.353139	24.520274	-0.044470	0.201495	2.128222	0.000000	0.004368	0.000000	-0.000002	-0.000000	0.000000	0.000000
62.765186	12.391798	24.390660	-0.071507	0.187349	2.129678	0.000000	0.004368	0.000000	-0.000002	-0.000000	0.000000	0.000000
63.098520	12.448482	24.270476	-0.098544	0.173203	2.131134	0.000000	0.004368	0.000000	-0.000002	-0.000000	0.000000	0.000000
63.433103	12.523505	24.159325	-0.125683	0.159003	2.132596	0.000000	0.004368	0.000000	-0.000002	-0.000000	0.000000	0.000000
63.730426	12.605411	24.068526	-0.118886	0.087361	2.133895	0.000000	-0.000865	0.000000	-0.000003	-0.000000	0.000000	0.000000
64.171386	12.870735	23.726401	-0.485093	0.685551	2.147054	0.000000	0.060605	0.000000	-0.000003	-0.000000	0.000000	0.000000
64.612346	13.467539	22.868512	-0.873462	1.252549	2.187445	0.000000	0.122766	0.000000	-0.000003	-0.000000	0.000000	0.000000
65.053306	14.423090	21.533892	-1.301737	1.762557	2.255529	0.000000	0.186325	0.000000	-0.000003	-0.000000	0.000000	0.000000
65.494266	15.781044	19.783265	-1.789485	2.192370	2.352080	0.000000	0.252006	0.000000	-0.000003	-0.000001	0.000000	0.000000
65.940226	17.626609	17.671504	-2.363683	2.523189	2.479772	0.000000	0.320959	0.000000	-0.000003	-0.000001	0.000000	0.000000
66.489286	19.992290	15.309034	-1.919415	1.804962	2.635631	0.000000	0.245936	0.000000	-0.000004	-0.000000	0.000000	0.000000
67.038346	21.792323	13.660461	-1.339569	1.215299	2.749039	0.000000	0.166552	0.000000	-0.000004	-0.000000	0.000000	0.000000
67.587406	22.899563	12.608360	-0.665103	0.712198	2.817983	0.000000	0.084213	0.000000	-0.000004	-0.000000	0.000000	0.000000
68.136466	23.235800	12.077793	0.056343	0.259826	2.841241	0.000000	0.000381	0.000000	-0.000004	-0.000000	0.000000	0.000000
68.435038	23.242246	11.911802	-0.017220	0.264564	2.843571	0.000000	0.007805	0.000000	-0.000004	-0.000000	0.000000	0.000000
68.768372	23.258508	11.745407	-0.031566	0.234622	2.846173	0.000000	0.007805	0.000000	-0.000004	-0.000000	0.000000	0.000000
69.101705	23.284334	11.598973	-0.045912	0.204680	2.848775	0.000000	0.007805	0.000000	-0.000004	-0.000000	0.000000	0.000000
69.436288	23.319875	11.472064	-0.060312	0.174625	2.851386	0.000000	0.007805	0.000000	-0.000004	-0.000000	0.000000	0.000000
69.733611	23.359544	11.376164	-0.134145	0.177643	2.853707	0.000000	0.015261	0.000000	-0.000004	-0.000000	0.000000	0.000000
70.282671	23.105671	11.408854	0.593785	-0.237533	2.838901	0.000000	-0.069112	0.000000	-0.000004	0.000000	0.000000	0.000000
