#ParticleID	Turn	x[m]	xp	y[m]	yp	z[m]	dE[GeV]# s	beta_x	beta_y	alpha_x	alpha_y	D_x	D_y	D_px	D_py	orbit_x	orbit_px	orbit_y	orbit_py
0.300000	11.816363	25.008572	-0.011291	-0.027390	2.618049	0.000000	0.000039	0.000000	-0.000002	0.000001	0.000000	0.000000
0.601250	11.830847	25.028706	-0.036788	-0.039445	2.618060	0.000000	0.000039	0.000000	-0.000002	0.000001	0.000000	0.000000
0.898573	11.860205	25.055700	-0.032869	-0.112787	2.618071	0.000000	-0.006382	0.000000	-0.000001	0.000001	0.000000	0.000000
1.339533	12.041353	24.877239	-0.379492	0.515957	2.631550	0.000000	0.067574	0.000000	-0.000001	0.000001	0.000000	0.000000
1.780493	12.534655	24.152549	-0.743453	1.121225	2.677778	0.000000	0.142300	0.000000	-0.000000	0.000001	0.000000	0.000000
2.221453	13.362650	22.914604	-1.141380	1.675479	2.757284	0.000000	0.218647	0.000000	-0.000000	0.000001	0.000000	0.000000
2.662413	14.563167	21.219727	-1.591454	2.153500	2.870972	0.000000	0.297484	0.000000	0.000000	0.000001	0.000000	0.000000
3.108373	16.211806	19.120180	-2.118528	2.534670	3.021999	0.000000	0.380199	0.000000	0.000001	0.000001	0.000000	0.000000
3.657433	18.325902	16.762093	-1.709070	1.785451	3.205478	0.000000	0.287160	0.000000	0.000001	0.000001	0.000000	0.000000
4.206493	19.921010	15.152495	-1.178893	1.163406	3.336398	0.000000	0.189028	0.000000	0.000002	0.000001	0.000000	0.000000
4.755553	20.884459	14.176737	-0.565444	0.624227	3.412437	0.000000	0.087544	0.000000	0.000003	0.000001	0.000000	0.000000
5.304613	21.148195	13.765318	0.087945	0.129511	3.432246	0.000000	-0.015494	0.000000	0.000003	0.000001	0.000000	0.000000
5.603185	21.132894	13.673159	0.018557	0.143192	3.430297	0.000000	-0.006526	0.000000	0.000003	0.000001	0.000000	0.000000
5.936519	21.125782	13.585990	0.002779	0.118313	3.428121	0.000000	-0.006526	0.000000	0.000004	0.000001	0.000000	0.000000
6.269852	21.129189	13.515408	-0.013000	0.093435	3.425945	0.000000	-0.006526	0.000000	0.000004	0.000001	0.000000	0.000000
6.604435	21.143187	13.461240	-0.028838	0.068463	3.423762	0.000000	-0.006526	0.000000	0.000004	0.000001	0.000000	0.000000
6.901758	21.164520	13.427126	-0.098209	0.081353	3.421821	0.000000	0.002414	0.000000	0.000004	0.000001	0.000000	0.000000
7.450818	20.911649	13.598563	0.556036	-0.395434	3.394944	0.000000	-0.100171	0.000000	0.000005	0.000001	0.000000	0.000000
7.999878	19.957754	14.305871	1.171005	-0.900387	3.312146	0.000000	-0.200980	0.000000	0.000005	0.000001	0.000000	0.000000
8.548938	18.370213	15.599431	1.703260	-1.469472	3.174898	0.000000	-0.298223	0.000000	0.000005	0.000000	0.000000	0.000000
9.097998	16.261162	17.571379	2.115205	-2.143225	2.985633	0.000000	-0.390177	0.000000	0.000005	0.000000	0.000000	0.000000
9.543958	14.615703	19.328492	1.587613	-1.780190	2.829937	0.000000	-0.308467	0.000000	0.000006	0.000000	0.000000	0.000000
9.984918	13.418867	20.708471	1.136844	-1.337390	2.711162	0.000000	-0.230753	0.000000	0.000006	0.000000	0.000000	0.000000
10.425878	12.595255	21.669510	0.738014	-0.833740	2.626045	0.000000	-0.155668	0.000000	0.000006	0.000001	0.000000	0.000000
10.866838	12.107237	22.167881	0.372902	-0.292155	2.573615	0.000000	-0.082355	0.000000	0.000006	0.000001	0.000000	0.000000
11.309048	11.932382	22.180389	0.053982	0.208272	2.553256	0.000000	-0.016242	0.000000	0.000007	0.000001	0.000000	0.000000
11.606371	11.907712	22.060700	0.028992	0.194286	2.548426	0.000000	-0.016242	0.000000	0.000007	0.000001	0.000000	0.000000
12.086371	11.899245	21.885023	-0.011352	0.171706	2.540630	0.000000	-0.016242	0.000000	0.000007	0.000001	0.000000	0.000000
12.566371	11.929507	21.731023	-0.051696	0.149127	2.532833	0.000000	-0.016242	0.000000	0.000008	0.000001	0.000000	0.000000
13.046371	11.998500	21.598699	-0.092040	0.126548	2.525037	0.000000	-0.016242	0.000000	0.000008	0.000001	0.000000	0.000000
13.526371	12.106223	21.488052	-0.132383	0.103968	2.517240	0.000000	-0.016242	0.000000	0.000009	0.000001	0.000000	0.000000
14.007621	12.253108	21.398877	-0.172832	0.081330	2.509423	0.000000	-0.016242	0.000000	0.000009	0.000001	0.000000	0.000000
14.304943	12.363313	21.354673	-0.167507	0.014981	2.504594	0.000000	-0.022383	0.000000	0.000009	0.000001	0.000000	0.000000
14.745903	12.669604	21.107730	-0.529730	0.542902	2.510357	0.000000	0.048548	0.000000	0.000010	0.000001	0.000000	0.000000
15.186863	13.304772	20.404357	-0.916155	1.046122	2.547489	0.000000	0.120032	0.000000	0.000010	0.000001	0.000000	0.000000
15.627823	14.297836	19.276558	-1.344437	1.501744	2.616415	0.000000	0.192884	0.000000	0.000011	0.000002	0.000000	0.000000
16.068783	15.694165	17.775647	-1.834142	1.889038	2.717918	0.000000	0.267932	0.000000	0.000012	0.000002	0.000000	0.000000
16.514743	17.581210	15.948411	-2.412402	2.191128	2.854851	0.000000	0.346495	0.000000	0.000013	0.000002	0.000000	0.000000
17.063803	20.004817	13.908109	-1.975569	1.546798	3.021361	0.000000	0.259147	0.000000	0.000014	0.000002	0.000000	0.000000
17.612863	21.868798	12.511068	-1.399191	1.012643	3.138579	0.000000	0.167202	0.000000	0.000015	0.000001	0.000000	0.000000
18.161923	23.041490	11.657782	-0.723982	0.550616	3.204424	0.000000	0.072292	0.000000	0.000016	0.000001	0.000000	0.000000
18.710983	23.440060	11.287472	0.002366	0.127809	3.217728	0.000000	-0.023900	0.000000	0.000016	0.000000	0.000000	0.000000
19.009556	23.479031	11.201636	-0.071652	0.130191	3.213102	0.000000	-0.015494	0.000000	0.000016	0.000000	0.000000	0.000000
19.342889	23.531556	11.124930	-0.085922	0.099929	3.207937	0.000000	-0.015494	0.000000	0.000016	0.000000	0.000000	0.000000
19.676223	23.593594	11.068398	-0.100192	0.069667	3.202772	0.000000	-0.015494	0.000000	0.000016	0.000000	0.000000	0.000000
20.010806	23.665725	11.031806	-0.231769	0.093950	3.197608	0.000000	0.000349	0.000000	0.000016	0.000001	0.000000	0.000000
20.308129	23.807482	10.984023	-0.307203	0.095456	3.197712	0.000000	0.008703	0.000000	0.000017	0.000001	0.000000	0.000000
20.857189	23.734209	11.101412	0.439864	-0.310518	3.176265	0.000000	-0.086709	0.000000	0.000017	0.000000	0.000000	0.000000
21.406249	22.852842	11.674065	1.155862	-0.738608	3.102777	0.000000	-0.180583	0.000000	0.000017	-0.000001	0.000000	0.000000
21.955309	21.225636	12.742771	1.790215	-1.219309	2.978552	0.000000	-0.271254	0.000000	0.000016	-0.000001	0.000000	0.000000
22.504369	18.967528	14.383651	2.298117	-1.786858	2.805793	0.000000	-0.357113	0.000000	0.000015	-0.000002	0.000000	0.000000
22.950329	17.187945	15.856840	1.706424	-1.502616	2.663832	0.000000	-0.279889	0.000000	0.000015	-0.000001	0.000000	0.000000
23.391289	15.912319	17.031388	1.197389	-1.150861	2.556738	0.000000	-0.206307	0.000000	0.000014	-0.000001	0.000000	0.000000
23.832249	15.059892	17.871352	0.743059	-0.746743	2.481542	0.000000	-0.135075	0.000000	0.000014	-0.000000	0.000000	0.000000
24.273209	14.591721	18.338516	0.322678	-0.308649	2.437388	0.000000	-0.065381	0.000000	0.000014	-0.000000	0.000000	0.000000
24.715418	14.486534	18.411378	-0.047527	0.098275	2.423770	0.000000	-0.002375	0.000000	0.000014	0.000000	0.000000	0.000000
25.012741	14.520912	18.357787	-0.068098	0.081970	2.423064	0.000000	-0.002375	0.000000	0.000014	0.000000	0.000000	0.000000
25.346075	14.573997	18.309233	-0.091160	0.063690	2.422272	0.000000	-0.002375	0.000000	0.000014	0.000000	0.000000	0.000000
25.679408	14.642458	18.272866	-0.114221	0.045411	2.421480	0.000000	-0.002375	0.000000	0.000014	0.000000	0.000000	0.000000
26.013991	14.726337	18.248988	-0.017900	-0.120982	2.420661	0.000000	-0.022013	0.000000	0.000014	0.000000	0.000000	0.000000
26.311314	14.742986	18.325844	-0.001947	-0.182447	2.414116	0.000000	-0.027932	0.000000	0.000015	0.000000	0.000000	0.000000
26.752274	14.926347	18.287995	-0.415452	0.267955	2.416913	0.000000	0.040629	0.000000	0.000015	0.000000	0.000000	0.000000
27.193234	15.481346	17.856805	-0.847938	0.706166	2.450015	0.000000	0.109652	0.000000	0.000015	0.000001	0.000000	0.000000
27.634194	16.433340	17.051894	-1.319163	1.112247	2.513800	0.000000	0.179925	0.000000	0.000015	0.000001	0.000000	0.000000
28.075154	17.825822	15.909885	-1.850658	1.467722	2.608994	0.000000	0.252246	0.000000	0.000016	0.000002	0.000000	0.000000
28.521114	19.746604	14.465535	-2.471669	1.757329	2.738285	0.000000	0.327884	0.000000	0.000017	0.000002	0.000000	0.000000
29.070174	22.187933	12.856229	-1.948387	1.190993	2.895641	0.000000	0.244462	0.000000	0.000018	0.000002	0.000000	0.000000
29.619234	23.975198	11.818873	-1.287480	0.709489	3.005935	0.000000	0.156703	0.000000	0.000019	0.000001	0.000000	0.000000
30.168294	24.982157	11.279580	-0.535632	0.278520	3.067209	0.000000	0.066165	0.000000	0.000019	0.000000	0.000000	0.000000
30.717354	25.137683	11.199937	0.254051	-0.132610	3.078376	0.000000	-0.025547	0.000000	0.000019	-0.000000	0.000000	0.000000
31.015927	25.028864	11.269697	0.176082	-0.130295	3.073150	0.000000	-0.017505	0.000000	0.000019	-0.000000	0.000000	0.000000
31.349260	24.916053	11.366587	0.162351	-0.160374	3.067315	0.000000	-0.017505	0.000000	0.000019	-0.000000	0.000000	0.000000
31.682593	24.812396	11.483530	0.148620	-0.190454	3.061480	0.000000	-0.017505	0.000000	0.000019	-0.000000	0.000000	0.000000
32.017177	24.717556	11.621078	0.134838	-0.220647	3.055623	0.000000	-0.017505	0.000000	0.000019	-0.000000	0.000000	0.000000
32.314499	24.641017	11.760262	0.058218	-0.216755	3.050418	0.000000	-0.009536	0.000000	0.000019	-0.000000	0.000000	0.000000
32.863559	24.154915	12.237513	0.821876	-0.657591	3.020294	0.000000	-0.100035	0.000000	0.000018	-0.000001	0.000000	0.000000
33.412619	22.857295	13.221581	1.527481	-1.145266	2.940895	0.000000	-0.188759	0.000000	0.000018	-0.000001	0.000000	0.000000
33.961679	20.839814	14.782558	2.125192	-1.714515	2.813630	0.000000	-0.274136	0.000000	0.000017	-0.000002	0.000000	0.000000
34.510739	18.244978	17.031630	2.572790	-2.405885	2.640756	0.000000	-0.354650	0.000000	0.000016	-0.000002	0.000000	0.000000
34.956699	16.227402	19.043335	1.967539	-2.086232	2.498943	0.000000	-0.281704	0.000000	0.000015	-0.000002	0.000000	0.000000
35.397659	14.722940	20.707074	1.457191	-1.672403	2.390108	0.000000	-0.212396	0.000000	0.000014	-0.000002	0.000000	0.000000
35.838619	13.637617	21.970772	1.013418	-1.182480	2.311273	0.000000	-0.145506	0.000000	0.000013	-0.000001	0.000000	0.000000
36.279579	12.921849	22.776933	0.615945	-0.638756	2.261541	0.000000	-0.080274	0.000000	0.000013	-0.000001	0.000000	0.000000
36.721789	12.542239	23.089182	0.277261	-0.122638	2.240318	0.000000	-0.021449	0.000000	0.000012	-0.000001	0.000000	0.000000
37.019112	12.384957	23.165994	0.251733	-0.135708	2.233941	0.000000	-0.021449	0.000000	0.000012	-0.000001	0.000000	0.000000
37.352445	12.226675	23.261351	0.223113	-0.150362	2.226792	0.000000	-0.021449	0.000000	0.000012	-0.000001	0.000000	0.000000
37.685779	12.087473	23.366477	0.194493	-0.165016	2.219643	0.000000	-0.021449	0.000000	0.000012	-0.000001	0.000000	0.000000
38.020362	11.966937	23.481822	0.165766	-0.179725	2.212466	0.000000	-0.021449	0.000000	0.000011	-0.000001	0.000000	0.000000
38.317684	11.875955	23.592581	0.169358	-0.250646	2.206089	0.000000	-0.026858	0.000000	0.000011	-0.000001	0.000000	0.000000
38.758644	11.878011	23.552316	-0.174038	0.341610	2.208176	0.000000	0.036330	0.000000	0.000011	-0.000000	0.000000	0.000000
39.199604	12.185263	22.994614	-0.525386	0.918323	2.238191	0.000000	0.099933	0.000000	0.000011	-0.000000	0.000000	0.000000
39.640564	12.811749	21.944849	-0.900736	1.453253	2.296476	0.000000	0.164674	0.000000	0.000011	0.000000	0.000000	0.000000
40.081524	13.786091	20.450785	-1.317239	1.922061	2.383695	0.000000	0.231290	0.000000	0.000011	0.000000	0.000000	0.000000
40.527484	15.170379	18.557830	-1.797750	2.304699	2.502313	0.000000	0.300946	0.000000	0.000011	0.000001	0.000000	0.000000
41.076544	16.936921	16.430636	-1.400596	1.592415	2.647017	0.000000	0.225374	0.000000	0.000011	0.000000	0.000000	0.000000
41.625604	18.210099	15.019115	-0.904510	0.993555	2.749066	0.000000	0.145804	0.000000	0.000011	-0.000000	0.000000	0.000000
42.174664	18.899984	14.222726	-0.344535	0.465464	2.806653	0.000000	0.063649	0.000000	0.000011	-0.000000	0.000000	0.000000
42.723724	18.957845	13.984745	0.239777	-0.029473	2.818754	0.000000	-0.019636	0.000000	0.000011	-0.000001	0.000000	0.000000
43.022297	18.849112	13.986902	0.173928	-0.014287	2.815090	0.000000	-0.012271	0.000000	0.000011	-0.000001	0.000000	0.000000
43.502297	18.694734	14.017094	0.147693	-0.048612	2.809200	0.000000	-0.012271	0.000000	0.000010	-0.000001	0.000000	0.000000
43.982297	18.565542	14.080237	0.121457	-0.082937	2.803310	0.000000	-0.012271	0.000000	0.000010	-0.000001	0.000000	0.000000
44.462297	18.461536	14.176332	0.095221	-0.117262	2.797420	0.000000	-0.012271	0.000000	0.000009	-0.000001	0.000000	0.000000
44.942297	18.382717	14.305380	0.068985	-0.151587	2.791530	0.000000	-0.012271	0.000000	0.000009	-0.000001	0.000000	0.000000
45.423547	18.329205	14.467664	-0.048132	-0.114319	2.785642	0.000000	0.001530	0.000000	0.000009	-0.000001	0.000000	0.000000
45.720870	18.362660	14.541834	-0.112365	-0.097146	2.786097	0.000000	0.008809	0.000000	0.000009	-0.000001	0.000000	0.000000
46.269930	18.176858	14.929770	0.448762	-0.613571	2.768360	0.000000	-0.073326	0.000000	0.000008	-0.000001	0.000000	0.000000
46.818990	17.388708	15.905330	0.978192	-1.173699	2.705817	0.000000	-0.154160	0.000000	0.000007	-0.000001	0.000000	0.000000
47.368050	16.053883	17.538000	1.438526	-1.817426	2.599577	0.000000	-0.232261	0.000000	0.000007	-0.000001	0.000000	0.000000
47.917110	14.266668	19.944071	1.797251	-2.590605	2.451525	0.000000	-0.306241	0.000000	0.000006	-0.000002	0.000000	0.000000
48.363070	12.875856	22.083285	1.332489	-2.186102	2.330248	0.000000	-0.237937	0.000000	0.000005	-0.000002	0.000000	0.000000
48.804030	11.880916	23.796101	0.932375	-1.683406	2.239788	0.000000	-0.172741	0.000000	0.000005	-0.000001	0.000000	0.000000
49.244990	11.218797	25.029982	0.574859	-1.104116	2.177617	0.000000	-0.109512	0.000000	0.000004	-0.000001	0.000000	0.000000
49.685950	10.859251	25.728787	0.243606	-0.474589	2.143026	0.000000	-0.047530	0.000000	0.000003	-0.000001	0.000000	0.000000
50.128160	10.785975	25.860439	-0.050184	0.113066	2.135632	0.000000	0.008674	0.000000	0.000003	-0.000001	0.000000	0.000000
50.425482	10.824033	25.796667	-0.077819	0.101421	2.138211	0.000000	0.008674	0.000000	0.000003	-0.000001	0.000000	0.000000
50.758816	10.886240	25.733404	-0.108801	0.088367	2.141103	0.000000	0.008674	0.000000	0.000002	-0.000001	0.000000	0.000000
51.092149	10.969101	25.678844	-0.139783	0.075312	2.143995	0.000000	0.008674	0.000000	0.000002	-0.000001	0.000000	0.000000
51.426732	11.072820	25.633352	-0.081052	-0.145741	2.146875	0.000000	-0.008743	0.000000	0.000001	-0.000001	0.000000	0.000000
51.724055	11.129053	25.723538	-0.080788	-0.220668	2.144276	0.000000	-0.014001	0.000000	0.000001	-0.000001	0.000000	0.000000
52.165015	11.345609	25.631968	-0.412177	0.427539	2.151691	0.000000	0.047663	0.000000	0.000001	-0.000001	0.000000	0.000000
52.605975	11.861592	24.975157	-0.762397	1.056294	2.186391	0.000000	0.109869	0.000000	0.000000	-0.000001	0.000000	0.000000
53.046935	12.700575	23.782991	-1.147449	1.636988	2.248772	0.000000	0.173328	0.000000	-0.000000	-0.000001	0.000000	0.000000
53.487895	13.900889	22.109712	-1.584925	2.143200	2.339543	0.000000	0.238760	0.000000	-0.000001	-0.000001	0.000000	0.000000
53.933855	15.537948	20.006434	-2.099041	2.553236	2.461243	0.000000	0.307310	0.000000	-0.000001	-0.000001	0.000000	0.000000
54.482915	17.645612	17.639716	-1.716912	1.782699	2.609795	0.000000	0.233007	0.000000	-0.000002	-0.000001	0.000000	0.000000
55.031975	19.264169	16.044865	-1.213508	1.139140	2.716354	0.000000	0.154570	0.000000	-0.000003	-0.000001	0.000000	0.000000
55.581035	20.279293	15.108285	-0.624389	0.576719	2.779029	0.000000	0.073392	0.000000	-0.000003	-0.000001	0.000000	0.000000
56.130095	20.619282	14.763263	0.008834	0.055376	2.796709	0.000000	-0.009088	0.000000	-0.000004	-0.000001	0.000000	0.000000
56.428668	20.650511	14.713252	-0.059551	0.073549	2.796178	0.000000	-0.001780	0.000000	-0.000004	-0.000001	0.000000	0.000000
56.762001	20.695611	14.671812	-0.075750	0.050771	2.795585	0.000000	-0.001780	0.000000	-0.000004	-0.000001	0.000000	0.000000
57.095334	20.751511	14.645557	-0.091949	0.027993	2.794992	0.000000	-0.001780	0.000000	-0.000004	-0.000001	0.000000	0.000000
57.429918	20.818481	14.634475	-0.108209	0.005130	2.794396	0.000000	-0.001780	0.000000	-0.000005	-0.000001	0.000000	0.000000
57.727240	20.887123	14.637465	-0.177234	0.023059	2.793867	0.000000	0.005520	0.000000	-0.000005	-0.000001	0.000000	0.000000
58.276300	20.725407	14.893221	0.470023	-0.491614	2.774260	0.000000	-0.076837	0.000000	-0.000005	-0.000001	0.000000	0.000000
58.825360	19.867029	15.729946	1.084080	-1.041304	2.709742	0.000000	-0.157830	0.000000	-0.000006	-0.000000	0.000000	0.000000
59.374420	18.372622	17.207239	1.621564	-1.665164	2.601458	0.000000	-0.236025	0.000000	-0.000006	-0.000000	0.000000	0.000000
59.923480	16.347743	19.430325	2.044508	-2.407630	2.451328	0.000000	-0.310032	0.000000	-0.000006	-0.000000	0.000000	0.000000
60.369440	14.762883	21.406227	1.521893	-2.004340	2.328355	0.000000	-0.241756	0.000000	-0.000006	-0.000000	0.000000	0.000000
60.810400	13.622958	22.962374	1.073013	-1.511229	2.236197	0.000000	-0.176630	0.000000	-0.000006	-0.000000	0.000000	0.000000
61.251360	12.855877	24.051539	0.673157	-0.949358	2.172287	0.000000	-0.113516	0.000000	-0.000006	-0.000001	0.000000	0.000000
61.692320	12.426594	24.624165	0.304055	-0.344292	2.135897	0.000000	-0.051694	0.000000	-0.000007	-0.000001	0.000000	0.000000
62.134530	12.315550	24.653660	-0.021054	0.215923	2.126617	0.000000	0.004323	0.000000	-0.000007	-0.000001	0.000000	0.000000
62.431853	12.335250	24.529015	-0.045207	0.203301	2.127902	0.000000	0.004323	0.000000	-0.000007	-0.000001	0.000000	0.000000
62.765186	12.374414	24.398199	-0.072285	0.189150	2.129343	0.000000	0.004323	0.000000	-0.000008	-0.000001	0.000000	0.000000
63.098520	12.431630	24.276816	-0.099363	0.174999	2.130785	0.000000	0.004323	0.000000	-0.000008	-0.000001	0.000000	0.000000
63.433103	12.507214	24.164465	-0.126542	0.160795	2.132231	0.000000	0.004323	0.000000	-0.000008	-0.000001	0.000000	0.000000
63.730426	12.589643	24.072602	-0.119819	0.089134	2.133517	0.000000	-0.000910	0.000000	-0.000009	-0.000001	0.000000	0.000000
64.171386	12.855639	23.728880	-0.485690	0.687386	2.146654	0.000000	0.060551	0.000000	-0.000009	-0.000001	0.000000	0.000000
64.612346	13.452832	22.869376	-0.873750	1.254362	2.187020	0.000000	0.122700	0.000000	-0.000010	-0.000001	0.000000	0.000000
65.053306	14.408505	21.533197	-1.301730	1.764266	2.255072	0.000000	0.186248	0.000000	-0.000010	-0.000002	0.000000	0.000000
65.494266	15.766322	19.781139	-1.789182	2.193897	2.351588	0.000000	0.251916	0.000000	-0.000011	-0.000002	0.000000	0.000000
65.940226	17.611478	17.668124	-2.363068	2.524462	2.479237	0.000000	0.320856	0.000000	-0.000012	-0.000002	0.000000	0.000000
66.489286	19.976805	15.304315	-1.919390	1.806144	2.635046	0.000000	0.245852	0.000000	-0.000013	-0.000002	0.000000	0.000000
67.038346	21.777137	13.654455	-1.340136	1.216474	2.748413	0.000000	0.166487	0.000000	-0.000014	-0.000001	0.000000	0.000000
67.587406	22.885307	12.601029	-0.666222	0.713451	2.817328	0.000000	0.084169	0.000000	-0.000015	-0.000001	0.000000	0.000000
68.136466	23.223041	12.069003	0.054750	0.261245	2.840568	0.000000	0.000359	0.000000	-0.000015	-0.000000	0.000000	0.000000
68.435038	23.230424	11.902188	-0.018792	0.265924	2.842891	0.000000	0.007781	0.000000	-0.000015	-0.000000	0.000000	0.000000
68.768372	23.247737	11.734902	-0.033146	0.235937	2.845485	0.000000	0.007781	0.000000	-0.000015	-0.000000	0.000000	0.000000
69.101705	23.274619	11.587606	-0.047500	0.205950	2.848079	0.000000	0.007781	0.000000	-0.000015	-0.000000	0.000000	0.000000
69.436288	23.311225	11.459861	-0.061908	0.175852	2.850683	0.000000	0.007781	0.000000	-0.000016	-0.000000	0.000000	0.000000
69.733611	23.351845	11.363244	-0.135733	0.178798	2.852996	0.000000	0.015237	0.000000	-0.000016	-0.000001	0.000000	0.000000
70.282671	23.099842	11.394463	0.591988	-0.235992	2.838184	0.000000	-0.069113	0.000000	-0.000016	0.000000	0.000000	0.000000
