#ParticleID	Turn	x[m]	xp	y[m]	yp	z[m]	dE[GeV]# s	beta_x	beta_y	alpha_x	alpha_y	D_x	D_y	D_px	D_py	orbit_x	orbit_px	orbit_y	orbit_py
0.300000	11.803245	25.059920	-0.010036	-0.026771	2.618306	0.000000	-0.000060	0.000000	-0.000003	0.000002	0.000000	0.000000
0.601250	11.816981	25.079674	-0.035561	-0.038801	2.618287	0.000000	-0.000060	0.000000	-0.000002	0.000002	0.000000	0.000000
0.898573	11.845618	25.106277	-0.031705	-0.112242	2.618269	0.000000	-0.006481	0.000000	-0.000002	0.000002	0.000000	0.000000
1.339533	12.025583	24.926747	-0.377965	0.517827	2.631704	0.000000	0.067480	0.000000	-0.000001	0.000002	0.000000	0.000000
1.780493	12.517355	24.199852	-0.741494	1.124336	2.677892	0.000000	0.142209	0.000000	0.000000	0.000002	0.000000	0.000000
2.221453	13.343400	22.958667	-1.138900	1.679688	2.757358	0.000000	0.218558	0.000000	0.000001	0.000002	0.000000	0.000000
2.662413	14.541458	21.259663	-1.588339	2.158616	2.871006	0.000000	0.297397	0.000000	0.000002	0.000002	0.000000	0.000000
3.108373	16.186981	19.155231	-2.114629	2.540462	3.021994	0.000000	0.380112	0.000000	0.000003	0.000002	0.000000	0.000000
3.657433	18.297134	16.791584	-1.705831	1.789848	3.205425	0.000000	0.287074	0.000000	0.000004	0.000002	0.000000	0.000000
4.206493	19.889154	15.177776	-1.176542	1.166720	3.336299	0.000000	0.188945	0.000000	0.000005	0.000002	0.000000	0.000000
4.755553	20.850589	14.198861	-0.564147	0.626696	3.412292	0.000000	0.087464	0.000000	0.000006	0.000002	0.000000	0.000000
5.304613	21.113527	13.785113	0.088096	0.131310	3.432058	0.000000	-0.015568	0.000000	0.000007	0.000001	0.000000	0.000000
5.603185	21.098088	13.691843	0.018776	0.145060	3.430087	0.000000	-0.006601	0.000000	0.000007	0.000001	0.000000	0.000000
5.936519	21.090839	13.603422	0.002972	0.120202	3.427886	0.000000	-0.006601	0.000000	0.000008	0.000001	0.000000	0.000000
6.269852	21.094126	13.531573	-0.012833	0.095345	3.425685	0.000000	-0.006601	0.000000	0.000008	0.000001	0.000000	0.000000
6.604435	21.108021	13.476120	-0.028697	0.070394	3.423476	0.000000	-0.006601	0.000000	0.000008	0.000001	0.000000	0.000000
6.901758	21.129277	13.440853	-0.097997	0.083338	3.421513	0.000000	0.002338	0.000000	0.000009	0.000001	0.000000	0.000000
7.450818	20.876823	13.610314	0.555071	-0.393798	3.394596	0.000000	-0.100237	0.000000	0.000010	0.000001	0.000000	0.000000
7.999878	19.924605	14.315963	1.168932	-0.898982	3.311766	0.000000	-0.201033	0.000000	0.000010	0.000001	0.000000	0.000000
8.548938	18.339885	15.608061	1.700225	-1.468200	3.174492	0.000000	-0.298264	0.000000	0.000011	0.000000	0.000000	0.000000
9.097998	16.234600	17.578642	2.111423	-2.141994	2.985207	0.000000	-0.390205	0.000000	0.000011	0.000000	0.000000	0.000000
9.543958	14.592146	19.334496	1.584633	-1.778608	2.829497	0.000000	-0.308505	0.000000	0.000011	0.000000	0.000000	0.000000
9.984918	13.397639	20.712953	1.134523	-1.335533	2.710703	0.000000	-0.230803	0.000000	0.000011	0.000001	0.000000	0.000000
10.425878	12.575822	21.672263	0.736247	-0.831692	2.625561	0.000000	-0.155730	0.000000	0.000011	0.000001	0.000000	0.000000
10.866838	12.089149	22.168778	0.371607	-0.290010	2.573100	0.000000	-0.082431	0.000000	0.000012	0.000001	0.000000	0.000000
11.309048	11.915252	22.179381	0.053057	0.210423	2.552704	0.000000	-0.016329	0.000000	0.000013	0.000002	0.000000	0.000000
11.606371	11.891142	22.058417	0.028034	0.196424	2.547849	0.000000	-0.016329	0.000000	0.000013	0.000002	0.000000	0.000000
12.086371	11.883620	21.880698	-0.012364	0.173824	2.540010	0.000000	-0.016329	0.000000	0.000014	0.000002	0.000000	0.000000
12.566371	11.914881	21.724675	-0.052762	0.151224	2.532171	0.000000	-0.016329	0.000000	0.000015	0.000002	0.000000	0.000000
13.046371	11.984923	21.590349	-0.093160	0.128624	2.524332	0.000000	-0.016329	0.000000	0.000015	0.000002	0.000000	0.000000
13.526371	12.093748	21.477718	-0.133558	0.106024	2.516493	0.000000	-0.016329	0.000000	0.000016	0.000002	0.000000	0.000000
14.007621	12.241789	21.386574	-0.174061	0.083365	2.508634	0.000000	-0.016329	0.000000	0.000017	0.000002	0.000000	0.000000
14.304943	12.352734	21.341164	-0.168797	0.017040	2.503779	0.000000	-0.022468	0.000000	0.000017	0.000002	0.000000	0.000000
14.745903	12.660072	21.092578	-0.530822	0.544553	2.509499	0.000000	0.048442	0.000000	0.000018	0.000002	0.000000	0.000000
15.186863	13.296135	20.387957	-0.917099	1.047290	2.546580	0.000000	0.119903	0.000000	0.000019	0.000002	0.000000	0.000000
15.627823	14.289981	19.259362	-1.345275	1.502375	2.615442	0.000000	0.192731	0.000000	0.000020	0.000003	0.000000	0.000000
16.068783	15.687019	17.758142	-1.834914	1.889104	2.716872	0.000000	0.267753	0.000000	0.000022	0.000004	0.000000	0.000000
16.514743	17.574736	15.931103	-2.413142	2.190622	2.853717	0.000000	0.346287	0.000000	0.000023	0.000004	0.000000	0.000000
17.063803	19.999365	13.891132	-1.976678	1.546696	3.020124	0.000000	0.258978	0.000000	0.000025	0.000003	0.000000	0.000000
17.612863	21.864732	12.493986	-1.400591	1.012938	3.137259	0.000000	0.167075	0.000000	0.000027	0.000002	0.000000	0.000000
18.161923	23.039077	11.640149	-0.725573	0.551330	3.203045	0.000000	0.072208	0.000000	0.000028	0.000002	0.000000	0.000000
18.710983	23.439448	11.268804	0.000696	0.128991	3.216315	0.000000	-0.023939	0.000000	0.000029	0.000001	0.000000	0.000000
19.009556	23.479411	11.182309	-0.073317	0.131267	3.211676	0.000000	-0.015537	0.000000	0.000029	0.000001	0.000000	0.000000
19.342889	23.533047	11.104905	-0.087590	0.100944	3.206497	0.000000	-0.015537	0.000000	0.000029	0.000001	0.000000	0.000000
19.676223	23.596198	11.047717	-0.101863	0.070621	3.201317	0.000000	-0.015537	0.000000	0.000030	0.000001	0.000000	0.000000
20.010806	23.669447	11.010507	-0.233461	0.094738	3.196138	0.000000	0.000298	0.000000	0.000030	0.000001	0.000000	0.000000
20.308129	23.812212	10.962272	-0.308908	0.096127	3.196227	0.000000	0.008647	0.000000	0.000030	0.000001	0.000000	0.000000
20.857189	23.740717	11.078586	0.438352	-0.309220	3.174763	0.000000	-0.086716	0.000000	0.000030	-0.000000	0.000000	0.000000
21.406249	22.860855	11.649431	1.154649	-0.736593	3.101284	0.000000	-0.180542	0.000000	0.000030	-0.000001	0.000000	0.000000
21.955309	21.234775	12.715467	1.789388	-1.216432	2.977095	0.000000	-0.271165	0.000000	0.000029	-0.000002	0.000000	0.000000
22.504369	18.977336	14.352625	2.297733	-1.782914	2.804398	0.000000	-0.356978	0.000000	0.000028	-0.000003	0.000000	0.000000
22.950329	17.198159	15.822613	1.705892	-1.499411	2.662490	0.000000	-0.279789	0.000000	0.000027	-0.000002	0.000000	0.000000
23.391289	15.923074	16.994712	1.196686	-1.148537	2.555433	0.000000	-0.206241	0.000000	0.000026	-0.000001	0.000000	0.000000
23.832249	15.071354	17.833056	0.742154	-0.745405	2.480259	0.000000	-0.135042	0.000000	0.000025	-0.000001	0.000000	0.000000
24.273209	14.604085	18.299499	0.321528	-0.308359	2.436112	0.000000	-0.065381	0.000000	0.000025	-0.000000	0.000000	0.000000
24.715418	14.500041	18.372574	-0.048944	0.097605	2.422486	0.000000	-0.002405	0.000000	0.000025	0.000000	0.000000	0.000000
25.012741	14.535257	18.319392	-0.069498	0.081267	2.421771	0.000000	-0.002405	0.000000	0.000025	0.000000	0.000000	0.000000
25.346075	14.589271	18.271318	-0.092542	0.062952	2.420969	0.000000	-0.002405	0.000000	0.000025	0.000000	0.000000	0.000000
25.679408	14.658647	18.235456	-0.115585	0.044636	2.420167	0.000000	-0.002405	0.000000	0.000026	0.000000	0.000000	0.000000
26.013991	14.743432	18.212108	-0.019107	-0.121494	2.419338	0.000000	-0.022032	0.000000	0.000026	0.000000	0.000000	0.000000
26.311314	14.760792	18.289279	-0.003092	-0.182900	2.412788	0.000000	-0.027947	0.000000	0.000026	0.000000	0.000000	0.000000
26.752274	14.945358	18.252266	-0.417050	0.266520	2.415570	0.000000	0.040579	0.000000	0.000026	0.000001	0.000000	0.000000
27.193234	15.501992	17.822753	-0.850061	0.703813	2.448642	0.000000	0.109568	0.000000	0.000027	0.000001	0.000000	0.000000
27.634194	16.456126	17.020284	-1.321910	1.109084	2.512381	0.000000	0.179804	0.000000	0.000027	0.000002	0.000000	0.000000
28.075154	17.851351	15.881369	-1.854153	1.463893	2.607514	0.000000	0.252088	0.000000	0.000028	0.000003	0.000000	0.000000
28.521114	19.775647	14.440670	-2.476081	1.753006	2.736725	0.000000	0.327687	0.000000	0.000030	0.000004	0.000000	0.000000
29.070174	22.221423	12.835552	-1.952026	1.187641	2.893986	0.000000	0.244316	0.000000	0.000032	0.000003	0.000000	0.000000
29.619234	24.012141	11.801456	-1.290089	0.706869	3.004215	0.000000	0.156612	0.000000	0.000033	0.000002	0.000000	0.000000
30.168294	25.021312	11.264726	-0.537027	0.276445	3.065454	0.000000	0.066130	0.000000	0.000033	0.000001	0.000000	0.000000
30.717354	25.177654	11.187130	0.253968	-0.134288	3.076618	0.000000	-0.025524	0.000000	0.000033	-0.000001	0.000000	0.000000
31.015927	25.068936	11.257927	0.175923	-0.132049	3.071396	0.000000	-0.017488	0.000000	0.000033	-0.000000	0.000000	0.000000
31.349260	24.956224	11.356001	0.162215	-0.162174	3.065567	0.000000	-0.017488	0.000000	0.000033	-0.000000	0.000000	0.000000
31.682593	24.852650	11.474159	0.148507	-0.192299	3.059738	0.000000	-0.017488	0.000000	0.000033	-0.000000	0.000000	0.000000
32.017177	24.757878	11.612956	0.134747	-0.222537	3.053887	0.000000	-0.017488	0.000000	0.000033	-0.000000	0.000000	0.000000
32.314499	24.681386	11.753276	0.058050	-0.218707	3.048688	0.000000	-0.009525	0.000000	0.000033	-0.000000	0.000000	0.000000
32.863559	24.194733	12.232611	0.823041	-0.659454	3.018585	0.000000	-0.099968	0.000000	0.000032	-0.000001	0.000000	0.000000
33.412619	22.895134	13.218737	1.529897	-1.147173	2.939238	0.000000	-0.188638	0.000000	0.000031	-0.000002	0.000000	0.000000
33.961679	20.874387	14.781896	2.128689	-1.716603	2.812055	0.000000	-0.273962	0.000000	0.000029	-0.000003	0.000000	0.000000
34.510739	18.275227	17.033427	2.577120	-2.408302	2.639291	0.000000	-0.354426	0.000000	0.000027	-0.000004	0.000000	0.000000
34.956699	16.254215	19.047376	1.970940	-2.088830	2.497570	0.000000	-0.281518	0.000000	0.000026	-0.000004	0.000000	0.000000
35.397659	14.747100	20.713441	1.459826	-1.675060	2.388810	0.000000	-0.212244	0.000000	0.000024	-0.000003	0.000000	0.000000
35.838619	13.659746	21.979466	1.015408	-1.185077	2.310036	0.000000	-0.145387	0.000000	0.000023	-0.000002	0.000000	0.000000
36.279579	12.942472	22.787845	0.617381	-0.641173	2.260350	0.000000	-0.080186	0.000000	0.000022	-0.000002	0.000000	0.000000
36.721789	12.561813	23.102112	0.278254	-0.124793	2.239159	0.000000	-0.021388	0.000000	0.000021	-0.000001	0.000000	0.000000
37.019112	12.403933	23.180205	0.252752	-0.137863	2.232801	0.000000	-0.021388	0.000000	0.000021	-0.000001	0.000000	0.000000
37.352445	12.244961	23.276998	0.224162	-0.152516	2.225672	0.000000	-0.021388	0.000000	0.000020	-0.000001	0.000000	0.000000
37.685779	12.105050	23.383560	0.195572	-0.167170	2.218543	0.000000	-0.021388	0.000000	0.000020	-0.000001	0.000000	0.000000
38.020362	11.983781	23.500346	0.166875	-0.181878	2.211388	0.000000	-0.021388	0.000000	0.000020	-0.000001	0.000000	0.000000
38.317684	11.892132	23.612385	0.170532	-0.252843	2.205029	0.000000	-0.026794	0.000000	0.000019	-0.000001	0.000000	0.000000
38.758644	11.893313	23.573820	-0.173221	0.339968	2.207138	0.000000	0.036368	0.000000	0.000019	-0.000001	0.000000	0.000000
39.199604	12.199988	23.017292	-0.524888	0.917311	2.237164	0.000000	0.099943	0.000000	0.000018	-0.000000	0.000000	0.000000
39.640564	12.826166	21.968124	-0.900535	1.452916	2.295447	0.000000	0.164658	0.000000	0.000018	0.000000	0.000000	0.000000
40.081524	13.800458	20.474052	-1.317325	1.922415	2.382653	0.000000	0.231247	0.000000	0.000018	0.000001	0.000000	0.000000
40.527484	15.184953	18.580475	-1.798128	2.305734	2.501247	0.000000	0.300876	0.000000	0.000019	0.000001	0.000000	0.000000
41.076544	16.951594	16.452487	-1.400398	1.592835	2.645921	0.000000	0.225339	0.000000	0.000019	0.000000	0.000000	0.000000
41.625604	18.224244	15.040826	-0.903751	0.993391	2.747961	0.000000	0.145805	0.000000	0.000019	-0.000000	0.000000	0.000000
42.174664	18.913008	14.244942	-0.343267	0.464704	2.805558	0.000000	0.063685	0.000000	0.000019	-0.000001	0.000000	0.000000
42.723724	18.969237	14.008147	0.241464	-0.030883	2.817689	0.000000	-0.019564	0.000000	0.000018	-0.000001	0.000000	0.000000
43.022297	18.859512	14.011100	0.175589	-0.015603	2.814045	0.000000	-0.012203	0.000000	0.000018	-0.000001	0.000000	0.000000
43.502297	18.703540	14.042527	0.149353	-0.049870	2.808188	0.000000	-0.012203	0.000000	0.000017	-0.000001	0.000000	0.000000
43.982297	18.572755	14.106850	0.123117	-0.084137	2.802331	0.000000	-0.012203	0.000000	0.000016	-0.000001	0.000000	0.000000
44.462297	18.467156	14.204069	0.096881	-0.118404	2.796474	0.000000	-0.012203	0.000000	0.000016	-0.000001	0.000000	0.000000
44.942297	18.386744	14.334185	0.070645	-0.152670	2.790617	0.000000	-0.012203	0.000000	0.000015	-0.000001	0.000000	0.000000
45.423547	18.331634	14.497484	-0.046485	-0.115197	2.784762	0.000000	0.001594	0.000000	0.000014	-0.000001	0.000000	0.000000
45.720870	18.364109	14.572164	-0.110715	-0.097908	2.785237	0.000000	0.008870	0.000000	0.000014	-0.000001	0.000000	0.000000
46.269930	18.176483	14.961447	0.450414	-0.615275	2.767541	0.000000	-0.073238	0.000000	0.000013	-0.000002	0.000000	0.000000
46.818990	17.386573	15.939447	0.979728	-1.176466	2.705053	0.000000	-0.154047	0.000000	0.000012	-0.000002	0.000000	0.000000
47.368050	16.050174	17.575827	1.439838	-1.821455	2.598883	0.000000	-0.232123	0.000000	0.000011	-0.000003	0.000000	0.000000
47.917110	14.261684	19.987141	1.798246	-2.596181	2.450913	0.000000	-0.306082	0.000000	0.000009	-0.000003	0.000000	0.000000
48.363070	12.869990	22.130914	1.333479	-2.190707	2.329703	0.000000	-0.237794	0.000000	0.000008	-0.000003	0.000000	0.000000
48.804030	11.874162	23.847286	0.933405	-1.686834	2.239305	0.000000	-0.172610	0.000000	0.000007	-0.000002	0.000000	0.000000
49.244990	11.211100	25.083611	0.575976	-1.106211	2.177189	0.000000	-0.109393	0.000000	0.000006	-0.000002	0.000000	0.000000
49.685950	10.850511	25.783639	0.244862	-0.475257	2.142648	0.000000	-0.047421	0.000000	0.000005	-0.000002	0.000000	0.000000
50.128160	10.776041	25.915234	-0.048757	0.113723	2.135300	0.000000	0.008774	0.000000	0.000004	-0.000002	0.000000	0.000000
50.425482	10.813257	25.851064	-0.076413	0.102102	2.137910	0.000000	0.008774	0.000000	0.000004	-0.000002	0.000000	0.000000
50.758816	10.874535	25.787339	-0.107420	0.089073	2.140835	0.000000	0.008774	0.000000	0.000003	-0.000002	0.000000	0.000000
51.092149	10.956484	25.732300	-0.138426	0.076045	2.143760	0.000000	0.008774	0.000000	0.000002	-0.000002	0.000000	0.000000
51.426732	11.059303	25.686310	-0.079828	-0.145413	2.146675	0.000000	-0.008641	0.000000	0.000002	-0.000002	0.000000	0.000000
51.724055	11.114817	25.776293	-0.079628	-0.220444	2.144106	0.000000	-0.013899	0.000000	0.000001	-0.000002	0.000000	0.000000
52.165015	11.330198	25.683910	-0.410664	0.429152	2.151566	0.000000	0.047761	0.000000	0.000000	-0.000002	0.000000	0.000000
52.605975	11.844666	25.025090	-0.760462	1.059222	2.186309	0.000000	0.109965	0.000000	-0.000001	-0.000002	0.000000	0.000000
53.046935	12.681724	23.829808	-1.145004	1.641098	2.248732	0.000000	0.173422	0.000000	-0.000002	-0.000002	0.000000	0.000000
53.487895	13.879617	22.152450	-1.581858	2.148306	2.339544	0.000000	0.238853	0.000000	-0.000003	-0.000002	0.000000	0.000000
53.933855	15.513609	20.044256	-2.095205	2.559106	2.461287	0.000000	0.307404	0.000000	-0.000004	-0.000002	0.000000	0.000000
54.482915	17.617392	17.671928	-1.713723	1.787107	2.609891	0.000000	0.233098	0.000000	-0.000005	-0.000002	0.000000	0.000000
55.031975	19.232909	16.072893	-1.211192	1.142399	2.716499	0.000000	0.154658	0.000000	-0.000006	-0.000002	0.000000	0.000000
55.581035	20.246047	15.133254	-0.623109	0.579061	2.779222	0.000000	0.073475	0.000000	-0.000007	-0.000002	0.000000	0.000000
56.130095	20.585244	14.786085	0.008988	0.056969	2.796946	0.000000	-0.009012	0.000000	-0.000008	-0.000001	0.000000	0.000000
56.428668	20.616336	14.735078	-0.059335	0.075228	2.796437	0.000000	-0.001704	0.000000	-0.000008	-0.000001	0.000000	0.000000
56.762001	20.661300	14.692510	-0.075560	0.052478	2.795870	0.000000	-0.001704	0.000000	-0.000009	-0.000001	0.000000	0.000000
57.095334	20.717082	14.665108	-0.091785	0.029728	2.795302	0.000000	-0.001704	0.000000	-0.000009	-0.000001	0.000000	0.000000
57.429918	20.783951	14.652855	-0.108071	0.006893	2.794733	0.000000	-0.001704	0.000000	-0.000009	-0.000001	0.000000	0.000000
57.727240	20.852518	14.654789	-0.177032	0.024894	2.794227	0.000000	0.005598	0.000000	-0.000010	-0.000001	0.000000	0.000000
58.276300	20.691217	14.908791	0.469069	-0.490237	2.774659	0.000000	-0.076771	0.000000	-0.000011	-0.000001	0.000000	0.000000
58.825360	19.834495	15.744209	1.082037	-1.040287	2.710174	0.000000	-0.157778	0.000000	-0.000011	-0.000001	0.000000	0.000000
59.374420	18.342866	17.220549	1.618576	-1.664435	2.601914	0.000000	-0.235987	0.000000	-0.000012	-0.000000	0.000000	0.000000
59.923480	16.321692	19.442967	2.040787	-2.407136	2.451801	0.000000	-0.310010	0.000000	-0.000012	-0.000000	0.000000	0.000000
60.369440	14.739790	21.418217	1.518958	-2.003376	2.328841	0.000000	-0.241721	0.000000	-0.000012	-0.000000	0.000000	0.000000
60.810400	13.602159	22.973323	1.070725	-1.509843	2.236701	0.000000	-0.176582	0.000000	-0.000012	-0.000001	0.000000	0.000000
61.251360	12.836851	24.061102	0.671410	-0.947612	2.172815	0.000000	-0.113455	0.000000	-0.000012	-0.000001	0.000000	0.000000
61.692320	12.408900	24.632059	0.302770	-0.342266	2.136454	0.000000	-0.051619	0.000000	-0.000013	-0.000001	0.000000	0.000000
62.134530	12.298810	24.659672	-0.021975	0.218118	2.127211	0.000000	0.004411	0.000000	-0.000013	-0.000002	0.000000	0.000000
62.431853	12.319068	24.533725	-0.046162	0.205487	2.128523	0.000000	0.004411	0.000000	-0.000014	-0.000002	0.000000	0.000000
62.765186	12.358882	24.401454	-0.073278	0.191327	2.129994	0.000000	0.004411	0.000000	-0.000014	-0.000002	0.000000	0.000000
63.098520	12.416772	24.278622	-0.100394	0.177166	2.131465	0.000000	0.004411	0.000000	-0.000015	-0.000002	0.000000	0.000000
63.433103	12.493059	24.164824	-0.127612	0.162953	2.132941	0.000000	0.004411	0.000000	-0.000016	-0.000002	0.000000	0.000000
63.730426	12.576134	24.071680	-0.120953	0.091282	2.134253	0.000000	-0.000824	0.000000	-0.000016	-0.000002	0.000000	0.000000
64.171386	12.843004	23.726092	-0.486547	0.689453	2.147433	0.000000	0.060656	0.000000	-0.000017	-0.000002	0.000000	0.000000
64.612346	13.440845	22.864835	-0.874369	1.256255	2.187849	0.000000	0.122826	0.000000	-0.000018	-0.000002	0.000000	0.000000
65.053306	14.396970	21.527096	-1.302138	1.765899	2.255963	0.000000	0.186396	0.000000	-0.000019	-0.000003	0.000000	0.000000
65.494266	15.755061	19.773740	-1.789399	2.195195	2.352550	0.000000	0.252089	0.000000	-0.000020	-0.000003	0.000000	0.000000
65.940226	17.600328	17.659743	-2.363103	2.525362	2.480282	0.000000	0.321054	0.000000	-0.000022	-0.000004	0.000000	0.000000
66.489286	19.965963	15.294922	-1.919914	1.807097	2.636191	0.000000	0.246015	0.000000	-0.000024	-0.000003	0.000000	0.000000
67.038346	21.767123	13.643957	-1.341113	1.217547	2.749637	0.000000	0.166612	0.000000	-0.000026	-0.000002	0.000000	0.000000
67.587406	22.876583	12.589252	-0.667582	0.714721	2.818610	0.000000	0.084253	0.000000	-0.000027	-0.000002	0.000000	0.000000
68.136466	23.215977	12.055684	0.053104	0.262802	2.841884	0.000000	0.000400	0.000000	-0.000027	-0.000001	0.000000	0.000000
68.435038	23.224337	11.887974	-0.020431	0.267397	2.844222	0.000000	0.007827	0.000000	-0.000027	-0.000001	0.000000	0.000000
68.768372	23.242744	11.719724	-0.034789	0.237353	2.846831	0.000000	0.007827	0.000000	-0.000028	-0.000001	0.000000	0.000000
69.101705	23.270723	11.571504	-0.049148	0.207308	2.849440	0.000000	0.007827	0.000000	-0.000028	-0.000001	0.000000	0.000000
69.436288	23.308433	11.442870	-0.063561	0.177151	2.852059	0.000000	0.007827	0.000000	-0.000028	-0.000001	0.000000	0.000000
69.733611	23.350037	11.345496	-0.137392	0.180003	2.854387	0.000000	0.015287	0.000000	-0.000028	-0.000001	0.000000	0.000000
70.282671	23.099873	11.375114	0.590318	-0.234265	2.839590	0.000000	-0.069108	0.000000	-0.000029	0.000000	0.000000	0.000000
