#ParticleID	Turn	x[m]	xp	y[m]	yp	z[m]	dE[GeV]# s	beta_x	beta_y	alpha_x	alpha_y	D_x	D_y	D_px	D_py	orbit_x	orbit_px	orbit_y	orbit_py
0.300000	11.833618	24.942200	-0.013603	-0.027781	2.618330	0.000000	-0.000070	0.000000	-0.000001	0.000000	0.000000	0.000000
0.601250	11.849484	24.962579	-0.039064	-0.039868	2.618309	0.000000	-0.000070	0.000000	-0.000001	0.000000	0.000000	0.000000
0.898573	11.880186	24.989834	-0.035060	-0.113081	2.618288	0.000000	-0.006491	0.000000	-0.000001	0.000000	0.000000	0.000000
1.339533	12.063483	24.812401	-0.382196	0.513929	2.631720	0.000000	0.067471	0.000000	-0.000001	0.000000	0.000000	0.000000
1.780493	12.559440	24.090232	-0.746792	1.117557	2.677904	0.000000	0.142200	0.000000	-0.000001	0.000000	0.000000	0.000000
2.221453	13.390716	22.856188	-1.145508	1.670336	2.757367	0.000000	0.218550	0.000000	-0.000001	0.000000	0.000000	0.000000
2.662413	14.595287	21.166414	-1.596558	2.147116	2.871013	0.000000	0.297388	0.000000	-0.000001	0.000000	0.000000	0.000000
3.108373	16.249005	19.073011	-2.124853	2.527334	3.021997	0.000000	0.380103	0.000000	-0.000001	-0.000000	0.000000	0.000000
3.657433	18.369570	16.721937	-1.714458	1.779940	3.205425	0.000000	0.287066	0.000000	-0.000001	0.000000	0.000000	0.000000
4.206493	19.969901	15.117572	-1.182963	1.159328	3.336295	0.000000	0.188937	0.000000	-0.000001	0.000000	0.000000	0.000000
4.755553	20.936959	14.145642	-0.567909	0.621292	3.412285	0.000000	0.087456	0.000000	-0.000001	0.000000	0.000000	0.000000
5.304613	21.202435	13.736917	0.087259	0.127510	3.432047	0.000000	-0.015576	0.000000	-0.000001	0.000000	0.000000	0.000000
5.603185	21.187618	13.646005	0.017765	0.141087	3.430074	0.000000	-0.006609	0.000000	-0.000001	0.000000	0.000000	0.000000
5.936519	21.181021	13.560252	0.002027	0.116173	3.427871	0.000000	-0.006609	0.000000	-0.000001	0.000000	0.000000	0.000000
6.269852	21.184915	13.491108	-0.013710	0.091260	3.425668	0.000000	-0.006609	0.000000	-0.000001	0.000000	0.000000	0.000000
6.604435	21.199375	13.438407	-0.029507	0.066253	3.423457	0.000000	-0.006609	0.000000	-0.000001	0.000000	0.000000	0.000000
6.901758	21.221094	13.405617	-0.098991	0.079058	3.421492	0.000000	0.002331	0.000000	-0.000001	0.000000	0.000000	0.000000
7.450818	20.968037	13.579250	0.557155	-0.397161	3.394573	0.000000	-0.100243	0.000000	-0.000001	0.000000	0.000000	0.000000
7.999878	20.011899	14.288201	1.173946	-0.901669	3.311740	0.000000	-0.201038	0.000000	-0.000000	0.000000	0.000000	0.000000
8.548938	18.420217	15.582967	1.707816	-1.470401	3.174463	0.000000	-0.298268	0.000000	-0.000000	0.000000	0.000000	0.000000
9.097998	16.305419	17.555771	2.121054	-2.143866	2.985177	0.000000	-0.390208	0.000000	-0.000000	0.000000	0.000000	0.000000
9.543958	14.655338	19.313718	1.592167	-1.781413	2.829465	0.000000	-0.308509	0.000000	-0.000000	0.000000	0.000000	0.000000
9.984918	13.454973	20.695012	1.140322	-1.339136	2.710669	0.000000	-0.230808	0.000000	-0.000000	0.000000	0.000000	0.000000
10.425878	12.628707	21.657792	0.740575	-0.835930	2.625525	0.000000	-0.155736	0.000000	-0.000000	0.000000	0.000000	0.000000
10.866838	12.138790	22.158254	0.374663	-0.294689	2.573062	0.000000	-0.082437	0.000000	-0.000000	0.000000	0.000000	0.000000
11.309048	11.962701	22.173113	0.055100	0.205525	2.552663	0.000000	-0.016338	0.000000	-0.000000	0.000000	0.000000	0.000000
11.606371	11.937348	22.055054	0.030171	0.191549	2.547806	0.000000	-0.016338	0.000000	0.000000	0.000000	0.000000	0.000000
12.086371	11.927703	21.881996	-0.010076	0.168987	2.539964	0.000000	-0.016338	0.000000	0.000000	0.000000	0.000000	0.000000
12.566371	11.956694	21.730598	-0.050323	0.146425	2.532121	0.000000	-0.016338	0.000000	0.000000	0.000000	0.000000	0.000000
13.046371	12.024322	21.600860	-0.090569	0.123863	2.524279	0.000000	-0.016338	0.000000	0.000000	0.000000	0.000000	0.000000
13.526371	12.130586	21.492782	-0.130816	0.101300	2.516437	0.000000	-0.016338	0.000000	0.000000	0.000000	0.000000	0.000000
14.007621	12.275915	21.406167	-0.171167	0.078679	2.508574	0.000000	-0.016338	0.000000	0.000000	0.000000	0.000000	0.000000
14.304943	12.385111	21.363536	-0.165725	0.012314	2.503717	0.000000	-0.022478	0.000000	0.000000	0.000000	0.000000	0.000000
14.745903	12.690030	21.118821	-0.528388	0.540534	2.509433	0.000000	0.048431	0.000000	0.000000	0.000000	0.000000	0.000000
15.186863	13.324185	20.417365	-0.915191	1.044160	2.546510	0.000000	0.119891	0.000000	0.000001	0.000000	0.000000	0.000000
15.627823	14.316548	19.291083	-1.343807	1.500278	2.615367	0.000000	0.192716	0.000000	0.000001	0.000000	0.000000	0.000000
16.068783	15.712458	17.791222	-1.833818	1.888134	2.716791	0.000000	0.267736	0.000000	0.000001	0.000000	0.000000	0.000000
16.514743	17.599345	15.964523	-2.412369	2.190831	2.853630	0.000000	0.346268	0.000000	0.000001	0.000000	0.000000	0.000000
17.063803	20.022472	13.924702	-1.974735	1.546214	3.020029	0.000000	0.258962	0.000000	0.000001	0.000000	0.000000	0.000000
17.612863	21.885122	12.528478	-1.397617	1.011731	3.137157	0.000000	0.167062	0.000000	0.000001	0.000000	0.000000	0.000000
18.161923	23.055726	11.676402	-0.721778	0.549311	3.202938	0.000000	0.072199	0.000000	0.000001	0.000000	0.000000	0.000000
18.710983	23.451600	11.307783	0.005044	0.126017	3.216205	0.000000	-0.023945	0.000000	0.000001	0.000000	0.000000	0.000000
19.009556	23.488990	11.222964	-0.069002	0.128518	3.211565	0.000000	-0.015541	0.000000	0.000001	0.000000	0.000000	0.000000
19.342889	23.539744	11.147349	-0.083260	0.098327	3.206384	0.000000	-0.015541	0.000000	0.000001	0.000000	0.000000	0.000000
19.676223	23.600004	11.091862	-0.097519	0.068135	3.201204	0.000000	-0.015541	0.000000	0.000001	0.000000	0.000000	0.000000
20.010806	23.670342	11.056271	-0.229107	0.092610	3.196024	0.000000	0.000294	0.000000	0.000001	0.000000	0.000000	0.000000
20.308129	23.810510	11.009265	-0.304539	0.094252	3.196111	0.000000	0.008644	0.000000	0.000001	0.000000	0.000000	0.000000
20.857189	23.734271	11.128370	0.442571	-0.312459	3.174647	0.000000	-0.086715	0.000000	0.000001	0.000000	0.000000	0.000000
21.406249	22.849996	11.703620	1.158420	-0.741425	3.101170	0.000000	-0.180537	0.000000	0.000001	0.000000	0.000000	0.000000
21.955309	21.220146	12.775988	1.792444	-1.223202	2.976984	0.000000	-0.271156	0.000000	0.000001	-0.000000	0.000000	0.000000
22.504369	18.959846	14.421857	2.299859	-1.792105	2.804291	0.000000	-0.356966	0.000000	0.000001	-0.000000	0.000000	0.000000
22.950329	17.178718	15.899354	1.708158	-1.506989	2.662387	0.000000	-0.279780	0.000000	0.000001	-0.000000	0.000000	0.000000
23.391289	15.901537	17.077299	1.199195	-1.154164	2.555332	0.000000	-0.206235	0.000000	0.000001	-0.000000	0.000000	0.000000
23.832249	15.047456	17.919647	0.745021	-0.748826	2.480160	0.000000	-0.135038	0.000000	0.000001	0.000000	0.000000	0.000000
24.273209	14.577454	18.388072	0.324884	-0.309417	2.436014	0.000000	-0.065380	0.000000	0.000001	0.000000	0.000000	0.000000
24.715418	14.470170	18.461014	-0.045012	0.098731	2.422388	0.000000	-0.002407	0.000000	0.000001	0.000000	0.000000	0.000000
25.012741	14.503058	18.407140	-0.065601	0.082468	2.421672	0.000000	-0.002407	0.000000	0.000001	0.000000	0.000000	0.000000
25.346075	14.554487	18.358238	-0.088684	0.064236	2.420870	0.000000	-0.002407	0.000000	0.000001	0.000000	0.000000	0.000000
25.679408	14.621304	18.321491	-0.111766	0.046004	2.420068	0.000000	-0.002407	0.000000	0.000001	0.000000	0.000000	0.000000
26.013991	14.703548	18.297201	-0.015651	-0.120732	2.419238	0.000000	-0.022033	0.000000	0.000001	0.000000	0.000000	0.000000
26.311314	14.718868	18.373896	0.000218	-0.182276	2.412687	0.000000	-0.027950	0.000000	0.000001	0.000000	0.000000	0.000000
26.752274	14.900051	18.335321	-0.412660	0.269423	2.415467	0.000000	0.040574	0.000000	0.000001	0.000000	0.000000	0.000000
27.193234	15.452265	17.902287	-0.844390	0.708864	2.448537	0.000000	0.109560	0.000000	0.000001	0.000000	0.000000	0.000000
27.634194	16.400739	17.094498	-1.314699	1.116053	2.512273	0.000000	0.179793	0.000000	0.000002	0.000000	0.000000	0.000000
28.075154	17.788806	15.948707	-1.845072	1.472461	2.607401	0.000000	0.252075	0.000000	0.000002	0.000000	0.000000	0.000000
28.521114	19.704006	14.499790	-2.464695	1.762789	2.736606	0.000000	0.327670	0.000000	0.000002	0.000000	0.000000	0.000000
29.070174	22.138228	12.885227	-1.942496	1.195164	2.893861	0.000000	0.244304	0.000000	0.000002	0.000000	0.000000	0.000000
29.619234	23.919813	11.843859	-1.283088	0.712669	3.004085	0.000000	0.156604	0.000000	0.000002	0.000000	0.000000	0.000000
30.168294	24.922920	11.301512	-0.533049	0.280936	3.065321	0.000000	0.066126	0.000000	0.000002	0.000000	0.000000	0.000000
30.717354	25.076693	11.219555	0.254641	-0.130788	3.076484	0.000000	-0.025524	0.000000	0.000002	0.000000	0.000000	0.000000
31.015927	24.967441	11.288177	0.176789	-0.128359	3.071263	0.000000	-0.017486	0.000000	0.000002	0.000000	0.000000	0.000000
31.349260	24.854171	11.383755	0.163021	-0.158375	3.065434	0.000000	-0.017486	0.000000	0.000002	0.000000	0.000000	0.000000
31.682593	24.750079	11.499344	0.149254	-0.188391	3.059605	0.000000	-0.017486	0.000000	0.000002	0.000000	0.000000	0.000000
32.017177	24.654828	11.635489	0.135434	-0.218520	3.053755	0.000000	-0.017486	0.000000	0.000002	0.000000	0.000000	0.000000
32.314499	24.577944	11.773391	0.058937	-0.214532	3.048556	0.000000	-0.009521	0.000000	0.000002	0.000000	0.000000	0.000000
32.863559	24.092208	12.248351	0.820494	-0.655616	3.018456	0.000000	-0.099960	0.000000	0.000002	-0.000000	0.000000	0.000000
33.412619	22.797222	13.230322	1.524096	-1.143399	2.939114	0.000000	-0.188626	0.000000	0.000002	-0.000000	0.000000	0.000000
33.961679	20.784456	14.789248	2.120043	-1.712623	2.811937	0.000000	-0.273946	0.000000	0.000002	-0.000000	0.000000	0.000000
34.510739	18.196083	17.036167	2.566241	-2.403834	2.639181	0.000000	-0.354407	0.000000	0.000002	-0.000000	0.000000	0.000000
34.956699	16.183681	19.045868	1.962444	-2.083808	2.497466	0.000000	-0.281501	0.000000	0.000002	-0.000000	0.000000	0.000000
35.397659	14.683164	20.707346	1.453306	-1.669720	2.388712	0.000000	-0.212229	0.000000	0.000002	-0.000000	0.000000	0.000000
35.838619	13.600802	21.968609	1.010565	-1.179661	2.309943	0.000000	-0.145375	0.000000	0.000002	-0.000000	0.000000	0.000000
36.279579	12.887143	22.772270	0.613995	-0.635929	2.260260	0.000000	-0.080176	0.000000	0.000002	-0.000000	0.000000	0.000000
36.721789	12.508893	23.082063	0.276045	-0.119919	2.239073	0.000000	-0.021381	0.000000	0.000002	-0.000000	0.000000	0.000000
37.019112	12.352350	23.157257	0.250465	-0.132986	2.232716	0.000000	-0.021381	0.000000	0.000002	-0.000000	0.000000	0.000000
37.352445	12.194933	23.250797	0.221786	-0.147635	2.225589	0.000000	-0.021381	0.000000	0.000002	-0.000000	0.000000	0.000000
37.685779	12.056635	23.354103	0.193108	-0.162284	2.218462	0.000000	-0.021381	0.000000	0.000002	-0.000000	0.000000	0.000000
38.020362	11.937045	23.467618	0.164322	-0.176987	2.211308	0.000000	-0.021381	0.000000	0.000002	-0.000000	0.000000	0.000000
38.317684	11.846937	23.576748	0.167794	-0.247870	2.204951	0.000000	-0.026788	0.000000	0.000002	-0.000000	0.000000	0.000000
38.758644	11.850084	23.534228	-0.174958	0.343928	2.207061	0.000000	0.036371	0.000000	0.000002	0.000000	0.000000	0.000000
39.199604	12.157880	22.974723	-0.525703	0.920078	2.237088	0.000000	0.099945	0.000000	0.000002	0.000000	0.000000	0.000000
39.640564	12.784387	21.923689	-0.900466	1.454365	2.295372	0.000000	0.164657	0.000000	0.000002	0.000000	0.000000	0.000000
40.081524	13.758229	20.428947	-1.316369	1.922479	2.382577	0.000000	0.231245	0.000000	0.000002	0.000000	0.000000	0.000000
40.527484	15.141456	18.535940	-1.796236	2.304400	2.501169	0.000000	0.300871	0.000000	0.000002	0.000000	0.000000	0.000000
41.076544	16.906917	16.408789	-1.400154	1.592638	2.645842	0.000000	0.225337	0.000000	0.000002	0.000000	0.000000	0.000000
41.625604	18.180217	14.996731	-0.905172	0.994316	2.747882	0.000000	0.145806	0.000000	0.000002	0.000000	0.000000	0.000000
42.174664	18.871417	14.199190	-0.346254	0.466816	2.805479	0.000000	0.063689	0.000000	0.000002	0.000000	0.000000	0.000000
42.723724	18.931694	13.959358	0.237122	-0.027433	2.817612	0.000000	-0.019559	0.000000	0.000002	-0.000000	0.000000	0.000000
43.022297	18.824509	13.960346	0.171332	-0.012351	2.813971	0.000000	-0.012197	0.000000	0.000002	-0.000000	0.000000	0.000000
43.502297	18.672630	13.988709	0.145084	-0.046739	2.808116	0.000000	-0.012197	0.000000	0.000002	-0.000000	0.000000	0.000000
43.982297	18.545947	14.050085	0.118837	-0.081128	2.802262	0.000000	-0.012197	0.000000	0.000002	-0.000000	0.000000	0.000000
44.462297	18.444462	14.144474	0.092590	-0.115516	2.796407	0.000000	-0.012197	0.000000	0.000002	-0.000000	0.000000	0.000000
44.942297	18.368174	14.271876	0.066343	-0.149904	2.790553	0.000000	-0.012197	0.000000	0.000002	-0.000000	0.000000	0.000000
45.423547	18.317211	14.432572	-0.050726	-0.112874	2.784701	0.000000	0.001600	0.000000	0.000002	-0.000000	0.000000	0.000000
45.720870	18.352213	14.505896	-0.114950	-0.095837	2.785176	0.000000	0.008877	0.000000	0.000002	-0.000000	0.000000	0.000000
46.269930	18.169420	14.891784	0.445900	-0.611128	2.767484	0.000000	-0.073229	0.000000	0.000002	-0.000000	0.000000	0.000000
46.818990	17.384474	15.863964	0.975254	-1.169949	2.705001	0.000000	-0.154036	0.000000	0.000002	-0.000000	0.000000	0.000000
47.368050	16.052821	17.491681	1.435722	-1.812102	2.598836	0.000000	-0.232111	0.000000	0.000002	-0.000000	0.000000	0.000000
47.917110	14.268521	19.890874	1.794777	-2.583328	2.450872	0.000000	-0.306069	0.000000	0.000001	-0.000000	0.000000	0.000000
48.363070	12.879823	22.024091	1.330207	-2.179988	2.329667	0.000000	-0.237781	0.000000	0.000001	-0.000000	0.000000	0.000000
48.804030	11.886851	23.732131	0.930177	-1.678730	2.239273	0.000000	-0.172598	0.000000	0.000001	-0.000000	0.000000	0.000000
49.244990	11.226672	24.962602	0.572644	-1.101090	2.177161	0.000000	-0.109382	0.000000	0.000001	-0.000000	0.000000	0.000000
49.685950	10.869124	25.659520	0.241273	-0.473352	2.142625	0.000000	-0.047411	0.000000	0.000001	-0.000000	0.000000	0.000000
50.128160	10.798003	25.790894	-0.052711	0.112628	2.135281	0.000000	0.008784	0.000000	0.000001	-0.000000	0.000000	0.000000
50.425482	10.837557	25.727391	-0.080323	0.100953	2.137892	0.000000	0.008784	0.000000	0.000001	-0.000000	0.000000	0.000000
50.758816	10.901424	25.664452	-0.111278	0.087865	2.140820	0.000000	0.008784	0.000000	0.000001	-0.000000	0.000000	0.000000
51.092149	10.985928	25.610238	-0.142234	0.074776	2.143748	0.000000	0.008784	0.000000	0.000001	-0.000000	0.000000	0.000000
51.426732	11.091277	25.565115	-0.083326	-0.145758	2.146665	0.000000	-0.008631	0.000000	0.000001	-0.000000	0.000000	0.000000
51.724055	11.148853	25.655320	-0.082979	-0.220549	2.144099	0.000000	-0.013889	0.000000	0.000001	-0.000000	0.000000	0.000000
52.165015	11.367557	25.564442	-0.414876	0.425856	2.151562	0.000000	0.047771	0.000000	0.000001	-0.000000	0.000000	0.000000
52.605975	11.886188	24.909885	-0.765727	1.052885	2.186309	0.000000	0.109975	0.000000	0.000001	-0.000000	0.000000	0.000000
53.046935	12.728441	23.721432	-1.151562	1.632009	2.248735	0.000000	0.173431	0.000000	0.000001	-0.000000	0.000000	0.000000
53.487895	13.932795	22.053156	-1.590009	2.136877	2.339551	0.000000	0.238863	0.000000	0.000001	-0.000000	0.000000	0.000000
53.933855	15.574913	19.956016	-2.105339	2.545853	2.461297	0.000000	0.307414	0.000000	0.000001	0.000000	0.000000	0.000000
54.482915	17.689020	17.596319	-1.722280	1.777218	2.609905	0.000000	0.233108	0.000000	0.000001	-0.000000	0.000000	0.000000
55.031975	19.312785	16.006626	-1.217567	1.135171	2.716518	0.000000	0.154667	0.000000	0.000001	-0.000000	0.000000	0.000000
55.581035	20.331512	15.073707	-0.626852	0.573979	2.779245	0.000000	0.073483	0.000000	0.000001	-0.000000	0.000000	0.000000
56.130095	20.673245	14.731111	0.008141	0.053671	2.796972	0.000000	-0.009005	0.000000	0.000001	-0.000000	0.000000	0.000000
56.428668	20.704959	14.682181	-0.060347	0.071720	2.796466	0.000000	-0.001697	0.000000	0.000001	-0.000000	0.000000	0.000000
56.762001	20.750577	14.641974	-0.076505	0.048900	2.795900	0.000000	-0.001697	0.000000	0.000001	-0.000000	0.000000	0.000000
57.095334	20.806966	14.616980	-0.092663	0.026080	2.795334	0.000000	-0.001697	0.000000	0.000001	-0.000000	0.000000	0.000000
57.429918	20.874399	14.607192	-0.108881	0.003175	2.794767	0.000000	-0.001697	0.000000	0.000001	-0.000000	0.000000	0.000000
57.727240	20.943430	14.611356	-0.178015	0.020997	2.794262	0.000000	0.005604	0.000000	0.000001	-0.000000	0.000000	0.000000
58.276300	20.781531	14.868974	0.471135	-0.492963	2.774698	0.000000	-0.076766	0.000000	0.000000	-0.000000	0.000000	0.000000
58.825360	19.920923	15.706834	1.087007	-1.042035	2.710214	0.000000	-0.157774	0.000000	0.000000	-0.000000	0.000000	0.000000
59.374420	18.422395	17.184616	1.626098	-1.665329	2.601957	0.000000	-0.235984	0.000000	0.000000	-0.000000	0.000000	0.000000
59.923480	16.391796	19.407580	2.050329	-2.407241	2.451844	0.000000	-0.310008	0.000000	0.000000	-0.000000	0.000000	0.000000
60.369440	14.802335	21.383463	1.526426	-2.004687	2.328885	0.000000	-0.241718	0.000000	0.000000	-0.000000	0.000000	0.000000
60.810400	13.658898	22.940233	1.076475	-1.512290	2.236746	0.000000	-0.176579	0.000000	0.000000	-0.000000	0.000000	0.000000
61.251360	12.889176	24.030633	0.675706	-0.951086	2.172862	0.000000	-0.113450	0.000000	0.000000	-0.000000	0.000000	0.000000
61.692320	12.458004	24.605049	0.305807	-0.346607	2.136503	0.000000	-0.051613	0.000000	0.000000	-0.000000	0.000000	0.000000
62.134530	12.345732	24.636814	-0.019945	0.213170	2.127262	0.000000	0.004419	0.000000	-0.000000	-0.000000	0.000000	0.000000
62.431853	12.364755	24.513805	-0.044038	0.200553	2.128576	0.000000	0.004419	0.000000	-0.000000	-0.000000	0.000000	0.000000
62.765186	12.403118	24.384817	-0.071049	0.186409	2.130049	0.000000	0.004419	0.000000	-0.000000	-0.000000	0.000000	0.000000
63.098520	12.459487	24.265260	-0.098059	0.172264	2.131522	0.000000	0.004419	0.000000	-0.000000	-0.000000	0.000000	0.000000
63.433103	12.534176	24.154737	-0.125171	0.158066	2.133001	0.000000	0.004419	0.000000	-0.000000	-0.000000	0.000000	0.000000
63.730426	12.615772	24.064495	-0.118326	0.086436	2.134315	0.000000	-0.000815	0.000000	-0.000000	-0.000000	0.000000	0.000000
64.171386	12.880702	23.723225	-0.484756	0.684544	2.147498	0.000000	0.060666	0.000000	-0.000000	-0.000000	0.000000	0.000000
64.612346	13.477301	22.866244	-0.873332	1.251505	2.187919	0.000000	0.122839	0.000000	-0.000000	-0.000000	0.000000	0.000000
65.053306	14.432826	21.532543	-1.301809	1.761524	2.256037	0.000000	0.186410	0.000000	-0.000000	-0.000000	0.000000	0.000000
65.494266	15.790932	19.782806	-1.789761	2.191395	2.352629	0.000000	0.252104	0.000000	-0.000001	-0.000000	0.000000	0.000000
65.940226	17.636840	17.671872	-2.364177	2.522317	2.480367	0.000000	0.321072	0.000000	-0.000001	-0.000000	0.000000	0.000000
66.489286	20.002852	15.310300	-1.919519	1.804190	2.636283	0.000000	0.246030	0.000000	-0.000001	-0.000000	0.000000	0.000000
67.038346	21.802781	13.662546	-1.339276	1.214571	2.749736	0.000000	0.166624	0.000000	-0.000001	-0.000000	0.000000	0.000000
67.587406	22.909488	12.611242	-0.664432	0.711464	2.818713	0.000000	0.084262	0.000000	-0.000001	-0.000000	0.000000	0.000000
68.136466	23.244801	12.081508	0.057343	0.259033	2.841991	0.000000	0.000405	0.000000	-0.000001	-0.000000	0.000000	0.000000
68.435038	23.250662	11.915980	-0.016237	0.263799	2.844330	0.000000	0.007831	0.000000	-0.000001	-0.000000	0.000000	0.000000
68.768372	23.266266	11.750087	-0.030577	0.233879	2.846940	0.000000	0.007831	0.000000	-0.000001	-0.000000	0.000000	0.000000
69.101705	23.291431	11.604141	-0.044917	0.203959	2.849550	0.000000	0.007831	0.000000	-0.000001	-0.000000	0.000000	0.000000
69.436288	23.326305	11.477707	-0.059311	0.173926	2.852171	0.000000	0.007831	0.000000	-0.000001	-0.000000	0.000000	0.000000
69.733611	23.365377	11.382218	-0.133152	0.176978	2.854499	0.000000	0.015289	0.000000	-0.000001	-0.000000	0.000000	0.000000
70.282671	23.110317	11.415733	0.594941	-0.238381	2.839702	0.000000	-0.069110	0.000000	-0.000001	-0.000000	0.000000	0.000000
