#ParticleID	Turn	x[m]	xp	y[m]	yp	z[m]	dE[GeV]# s	beta_x	beta_y	alpha_x	alpha_y	D_x	D_y	D_px	D_py	orbit_x	orbit_px	orbit_y	orbit_py
0.300000	11.806905	25.046625	-0.010316	-0.026963	2.618165	0.000000	-0.000007	0.000000	-0.000002	0.000002	0.000000	0.000000
0.601250	11.820807	25.066496	-0.035834	-0.039000	2.618162	0.000000	-0.000007	0.000000	-0.000001	0.000002	0.000000	0.000000
0.898573	11.849604	25.093219	-0.031960	-0.112415	2.618159	0.000000	-0.006428	0.000000	-0.000001	0.000002	0.000000	0.000000
1.339533	12.029836	24.913993	-0.378318	0.517313	2.631617	0.000000	0.067530	0.000000	0.000000	0.000002	0.000000	0.000000
1.780493	12.521967	24.187695	-0.741960	1.123503	2.677827	0.000000	0.142258	0.000000	0.000001	0.000002	0.000000	0.000000
2.221453	13.348481	22.947370	-1.139501	1.678575	2.757313	0.000000	0.218605	0.000000	0.000002	0.000002	0.000000	0.000000
2.662413	14.547138	21.249453	-1.589102	2.157273	2.870983	0.000000	0.297443	0.000000	0.000003	0.000002	0.000000	0.000000
3.108373	16.193428	19.146299	-2.115591	2.538951	3.021991	0.000000	0.380158	0.000000	0.000003	0.000002	0.000000	0.000000
3.657433	18.304546	16.784104	-1.706616	1.788696	3.205447	0.000000	0.287120	0.000000	0.000005	0.000002	0.000000	0.000000
4.206493	19.897305	15.171403	-1.177094	1.165846	3.336345	0.000000	0.188989	0.000000	0.000005	0.000002	0.000000	0.000000
4.755553	20.859201	14.193324	-0.564429	0.626037	3.412363	0.000000	0.087507	0.000000	0.000006	0.000001	0.000000	0.000000
5.304613	21.122289	13.780204	0.088105	0.130819	3.432151	0.000000	-0.015528	0.000000	0.000007	0.000001	0.000000	0.000000
5.603185	21.106856	13.687236	0.018769	0.144552	3.430192	0.000000	-0.006561	0.000000	0.000007	0.000001	0.000000	0.000000
5.936519	21.099609	13.599155	0.002971	0.119690	3.428004	0.000000	-0.006561	0.000000	0.000008	0.000001	0.000000	0.000000
6.269852	21.102895	13.527650	-0.012827	0.094827	3.425817	0.000000	-0.006561	0.000000	0.000008	0.000001	0.000000	0.000000
6.604435	21.116784	13.472545	-0.028685	0.069871	3.423621	0.000000	-0.006561	0.000000	0.000009	0.000001	0.000000	0.000000
6.901758	21.138031	13.437589	-0.098002	0.082802	3.421670	0.000000	0.002378	0.000000	0.000009	0.000001	0.000000	0.000000
7.450818	20.885420	13.607591	0.555357	-0.394252	3.394774	0.000000	-0.100202	0.000000	0.000010	0.000001	0.000000	0.000000
7.999878	19.932737	14.313709	1.169488	-0.899388	3.311962	0.000000	-0.201005	0.000000	0.000010	0.000001	0.000000	0.000000
8.548938	18.347275	15.606239	1.701013	-1.468586	3.174701	0.000000	-0.298242	0.000000	0.000011	0.000000	0.000000	0.000000
9.097998	16.241021	17.577246	2.112386	-2.142387	2.985428	0.000000	-0.390189	0.000000	0.000011	-0.000000	0.000000	0.000000
9.543958	14.597799	19.333488	1.585398	-1.779082	2.829725	0.000000	-0.308484	0.000000	0.000011	0.000000	0.000000	0.000000
9.984918	13.402691	20.712391	1.135126	-1.336065	2.710942	0.000000	-0.230776	0.000000	0.000011	0.000001	0.000000	0.000000
10.425878	12.580403	21.672187	0.736716	-0.832259	2.625813	0.000000	-0.155697	0.000000	0.000011	0.000001	0.000000	0.000000
10.866838	12.093368	22.169208	0.371963	-0.290585	2.573369	0.000000	-0.082390	0.000000	0.000012	0.000001	0.000000	0.000000
11.309048	11.919201	22.180313	0.053326	0.209863	2.552993	0.000000	-0.016283	0.000000	0.000012	0.000001	0.000000	0.000000
11.606371	11.894928	22.059680	0.028310	0.195868	2.548151	0.000000	-0.016283	0.000000	0.000013	0.000001	0.000000	0.000000
12.086371	11.887135	21.882492	-0.012075	0.173274	2.540335	0.000000	-0.016283	0.000000	0.000013	0.000001	0.000000	0.000000
12.566371	11.918113	21.726994	-0.052461	0.150680	2.532518	0.000000	-0.016283	0.000000	0.000014	0.000001	0.000000	0.000000
13.046371	11.987861	21.593186	-0.092847	0.128086	2.524702	0.000000	-0.016283	0.000000	0.000015	0.000001	0.000000	0.000000
13.526371	12.096379	21.481068	-0.133232	0.105492	2.516886	0.000000	-0.016283	0.000000	0.000015	0.000001	0.000000	0.000000
14.007621	12.244101	21.390433	-0.173723	0.082840	2.509049	0.000000	-0.016283	0.000000	0.000016	0.000001	0.000000	0.000000
14.304943	12.354843	21.345334	-0.168446	0.016508	2.504207	0.000000	-0.022423	0.000000	0.000016	0.000001	0.000000	0.000000
14.745903	12.661889	21.097164	-0.530507	0.544145	2.509950	0.000000	0.048499	0.000000	0.000017	0.000002	0.000000	0.000000
15.186863	13.297684	20.392843	-0.916806	1.047023	2.547059	0.000000	0.119972	0.000000	0.000018	0.000002	0.000000	0.000000
15.627823	14.291278	19.264415	-1.344991	1.502263	2.615955	0.000000	0.192812	0.000000	0.000019	0.000003	0.000000	0.000000
16.068783	15.688063	17.763224	-1.834625	1.889151	2.717423	0.000000	0.267848	0.000000	0.000020	0.000003	0.000000	0.000000
16.514743	17.575516	15.936071	-2.412836	2.190827	2.854315	0.000000	0.346397	0.000000	0.000022	0.000004	0.000000	0.000000
17.063803	19.999768	13.895943	-1.976302	1.546779	3.020776	0.000000	0.259068	0.000000	0.000024	0.000003	0.000000	0.000000
17.612863	21.864697	12.498771	-1.400172	1.012903	3.137955	0.000000	0.167143	0.000000	0.000025	0.000002	0.000000	0.000000
18.161923	23.038572	11.645037	-0.725141	0.551175	3.203773	0.000000	0.072253	0.000000	0.000026	0.000001	0.000000	0.000000
18.710983	23.438476	11.273931	0.001110	0.128706	3.217061	0.000000	-0.023918	0.000000	0.000027	0.000001	0.000000	0.000000
19.009556	23.478191	11.187594	-0.072901	0.131010	3.212429	0.000000	-0.015514	0.000000	0.000027	0.000001	0.000000	0.000000
19.342889	23.531550	11.110356	-0.087174	0.100704	3.207257	0.000000	-0.015514	0.000000	0.000027	0.000001	0.000000	0.000000
19.676223	23.594423	11.053323	-0.101447	0.070398	3.202086	0.000000	-0.015514	0.000000	0.000027	0.000001	0.000000	0.000000
20.010806	23.667395	11.016256	-0.233035	0.094559	3.196915	0.000000	0.000325	0.000000	0.000028	0.000001	0.000000	0.000000
20.308129	23.809906	10.968124	-0.308476	0.095979	3.197011	0.000000	0.008677	0.000000	0.000028	0.000001	0.000000	0.000000
20.857189	23.737980	11.084691	0.438699	-0.309536	3.175556	0.000000	-0.086712	0.000000	0.000028	-0.000000	0.000000	0.000000
21.406249	22.857796	11.655984	1.154886	-0.737099	3.102073	0.000000	-0.180563	0.000000	0.000028	-0.000001	0.000000	0.000000
21.955309	21.231524	12.722695	1.789498	-1.217163	2.977865	0.000000	-0.271212	0.000000	0.000027	-0.000002	0.000000	0.000000
22.504369	18.974037	14.360803	2.297709	-1.783924	2.805136	0.000000	-0.357049	0.000000	0.000026	-0.000003	0.000000	0.000000
22.950329	17.194854	15.831606	1.705931	-1.500223	2.663200	0.000000	-0.279842	0.000000	0.000025	-0.000002	0.000000	0.000000
23.391289	15.919707	17.004322	1.196789	-1.149116	2.556123	0.000000	-0.206276	0.000000	0.000024	-0.000001	0.000000	0.000000
23.832249	15.067866	17.843063	0.742325	-0.745725	2.480938	0.000000	-0.135059	0.000000	0.000023	-0.000001	0.000000	0.000000
24.273209	14.600413	18.309667	0.321776	-0.308404	2.436787	0.000000	-0.065381	0.000000	0.000023	-0.000000	0.000000	0.000000
24.715418	14.496113	18.382660	-0.048618	0.097810	2.423165	0.000000	-0.002388	0.000000	0.000023	0.000000	0.000000	0.000000
25.012741	14.531136	18.329352	-0.069177	0.081481	2.422455	0.000000	-0.002388	0.000000	0.000023	0.000000	0.000000	0.000000
25.346075	14.584936	18.281134	-0.092226	0.063175	2.421659	0.000000	-0.002388	0.000000	0.000023	0.000000	0.000000	0.000000
25.679408	14.654103	18.245119	-0.115275	0.044868	2.420862	0.000000	-0.002388	0.000000	0.000024	0.000000	0.000000	0.000000
26.013991	14.738683	18.221612	-0.018840	-0.121329	2.420039	0.000000	-0.022021	0.000000	0.000024	0.000000	0.000000	0.000000
26.311314	14.755886	18.298683	-0.002843	-0.182750	2.413491	0.000000	-0.027939	0.000000	0.000024	0.000000	0.000000	0.000000
26.752274	14.940179	18.261425	-0.416677	0.266922	2.416281	0.000000	0.040606	0.000000	0.000024	0.000001	0.000000	0.000000
27.193234	15.496424	17.831453	-0.849549	0.704450	2.449370	0.000000	0.109613	0.000000	0.000024	0.000001	0.000000	0.000000
27.634194	16.450035	17.028329	-1.321234	1.109926	2.513133	0.000000	0.179868	0.000000	0.000025	0.000002	0.000000	0.000000
28.075154	17.844580	15.888596	-1.853282	1.464901	2.608298	0.000000	0.252173	0.000000	0.000026	0.000003	0.000000	0.000000
28.521114	19.767996	14.446940	-2.474973	1.754135	2.737551	0.000000	0.327792	0.000000	0.000027	0.000003	0.000000	0.000000
29.070174	22.212664	12.840726	-1.951127	1.188521	2.894864	0.000000	0.244394	0.000000	0.000029	0.000002	0.000000	0.000000
29.619234	24.002540	11.805770	-1.289463	0.707563	3.005127	0.000000	0.156661	0.000000	0.000030	0.000001	0.000000	0.000000
30.168294	25.011194	11.268356	-0.536718	0.277004	3.066384	0.000000	0.066149	0.000000	0.000030	0.000000	0.000000	0.000000
30.717354	25.167381	11.190204	0.253939	-0.133826	3.077550	0.000000	-0.025536	0.000000	0.000030	-0.000001	0.000000	0.000000
31.015927	25.058667	11.260716	0.175914	-0.131569	3.072326	0.000000	-0.017497	0.000000	0.000030	-0.000000	0.000000	0.000000
31.349260	24.945962	11.358467	0.162201	-0.161683	3.066494	0.000000	-0.017497	0.000000	0.000030	-0.000000	0.000000	0.000000
31.682593	24.842400	11.476293	0.148487	-0.191797	3.060662	0.000000	-0.017497	0.000000	0.000030	-0.000000	0.000000	0.000000
32.017177	24.747643	11.614750	0.134722	-0.222023	3.054808	0.000000	-0.017497	0.000000	0.000030	-0.000000	0.000000	0.000000
32.314499	24.671168	11.754762	0.058044	-0.218179	3.049606	0.000000	-0.009531	0.000000	0.000030	-0.000000	0.000000	0.000000
32.863559	24.184707	12.233526	0.822700	-0.658938	3.019491	0.000000	-0.100004	0.000000	0.000029	-0.000001	0.000000	0.000000
33.412619	22.885657	13.219076	1.529245	-1.146633	2.940117	0.000000	-0.188702	0.000000	0.000028	-0.000002	0.000000	0.000000
33.961679	20.865777	14.781610	2.127771	-1.715999	2.812891	0.000000	-0.274054	0.000000	0.000027	-0.000003	0.000000	0.000000
34.510739	18.267743	17.032424	2.576001	-2.407593	2.640069	0.000000	-0.354545	0.000000	0.000025	-0.000004	0.000000	0.000000
34.956699	16.247620	19.045722	1.970056	-2.088084	2.498299	0.000000	-0.281617	0.000000	0.000023	-0.000003	0.000000	0.000000
35.397659	14.741198	20.711127	1.459134	-1.674314	2.389499	0.000000	-0.212325	0.000000	0.000022	-0.000003	0.000000	0.000000
35.838619	13.654381	21.976505	1.014877	-1.184363	2.310693	0.000000	-0.145450	0.000000	0.000021	-0.000002	0.000000	0.000000
36.279579	12.937513	22.784281	0.616986	-0.640525	2.260983	0.000000	-0.080232	0.000000	0.000020	-0.000002	0.000000	0.000000
36.721789	12.557150	23.098014	0.277967	-0.124230	2.239775	0.000000	-0.021420	0.000000	0.000019	-0.000001	0.000000	0.000000
37.019112	12.399442	23.175773	0.252460	-0.137301	2.233407	0.000000	-0.021420	0.000000	0.000019	-0.000001	0.000000	0.000000
37.352445	12.240667	23.272191	0.223863	-0.151954	2.226267	0.000000	-0.021420	0.000000	0.000018	-0.000001	0.000000	0.000000
37.685779	12.100957	23.378379	0.195267	-0.166608	2.219127	0.000000	-0.021420	0.000000	0.000018	-0.000001	0.000000	0.000000
38.020362	11.979895	23.494789	0.166564	-0.181317	2.211961	0.000000	-0.021420	0.000000	0.000017	-0.000001	0.000000	0.000000
38.317684	11.888432	23.606495	0.170206	-0.252269	2.205593	0.000000	-0.026828	0.000000	0.000017	-0.000001	0.000000	0.000000
38.758644	11.889864	23.567494	-0.173466	0.340377	2.207690	0.000000	0.036348	0.000000	0.000017	-0.000001	0.000000	0.000000
39.199604	12.196723	23.010685	-0.525063	0.917537	2.237710	0.000000	0.099938	0.000000	0.000016	-0.000000	0.000000	0.000000
39.640564	12.823029	21.961402	-0.900648	1.452950	2.295995	0.000000	0.164666	0.000000	0.000016	-0.000000	0.000000	0.000000
40.081524	13.797395	20.467386	-1.317382	1.922255	2.383208	0.000000	0.231270	0.000000	0.000016	0.000000	0.000000	0.000000
40.527484	15.181916	18.574037	-1.798131	2.305385	2.501815	0.000000	0.300913	0.000000	0.000016	0.000001	0.000000	0.000000
41.076544	16.948631	16.446331	-1.400528	1.592667	2.646504	0.000000	0.225358	0.000000	0.000017	0.000000	0.000000	0.000000
41.625604	18.221489	15.034763	-0.903999	0.993391	2.748550	0.000000	0.145805	0.000000	0.000017	-0.000000	0.000000	0.000000
42.174664	18.910584	14.238787	-0.343616	0.464872	2.806141	0.000000	0.063666	0.000000	0.000016	-0.000001	0.000000	0.000000
42.723724	18.967241	14.001710	0.241038	-0.030535	2.818256	0.000000	-0.019602	0.000000	0.000016	-0.000001	0.000000	0.000000
43.022297	18.857767	14.004468	0.175168	-0.015281	2.814602	0.000000	-0.012240	0.000000	0.000015	-0.000001	0.000000	0.000000
43.502297	18.702198	14.035593	0.148934	-0.049564	2.808728	0.000000	-0.012240	0.000000	0.000015	-0.000001	0.000000	0.000000
43.982297	18.571815	14.099630	0.122699	-0.083846	2.802854	0.000000	-0.012240	0.000000	0.000014	-0.000001	0.000000	0.000000
44.462297	18.466617	14.196578	0.096464	-0.118129	2.796979	0.000000	-0.012240	0.000000	0.000014	-0.000001	0.000000	0.000000
44.942297	18.386604	14.326438	0.070229	-0.152412	2.791105	0.000000	-0.012240	0.000000	0.000013	-0.000001	0.000000	0.000000
45.423547	18.331893	14.489496	-0.046900	-0.114994	2.785232	0.000000	0.001560	0.000000	0.000012	-0.000001	0.000000	0.000000
45.720870	18.364615	14.564059	-0.111133	-0.097736	2.785697	0.000000	0.008838	0.000000	0.000012	-0.000001	0.000000	0.000000
46.269930	18.177434	14.953017	0.450025	-0.614852	2.767979	0.000000	-0.073285	0.000000	0.000011	-0.000002	0.000000	0.000000
46.818990	17.387923	15.930403	0.979395	-1.175763	2.705462	0.000000	-0.154107	0.000000	0.000010	-0.000002	0.000000	0.000000
47.368050	16.051847	17.565835	1.439586	-1.820421	2.599254	0.000000	-0.232196	0.000000	0.000009	-0.000002	0.000000	0.000000
47.917110	14.263581	19.975800	1.798092	-2.594743	2.451241	0.000000	-0.306167	0.000000	0.000008	-0.000003	0.000000	0.000000
48.363070	12.872033	22.118401	1.333307	-2.189527	2.329995	0.000000	-0.237870	0.000000	0.000007	-0.000002	0.000000	0.000000
48.804030	11.876368	23.833866	0.933207	-1.685965	2.239564	0.000000	-0.172680	0.000000	0.000006	-0.000002	0.000000	0.000000
49.244990	11.213496	25.069578	0.575743	-1.105693	2.177419	0.000000	-0.109456	0.000000	0.000005	-0.000002	0.000000	0.000000
49.685950	10.853132	25.769313	0.244583	-0.475113	2.142851	0.000000	-0.047479	0.000000	0.000004	-0.000002	0.000000	0.000000
50.128160	10.778934	25.900950	-0.049087	0.113521	2.135479	0.000000	0.008721	0.000000	0.000003	-0.000002	0.000000	0.000000
50.425482	10.816345	25.836903	-0.076737	0.101893	2.138073	0.000000	0.008721	0.000000	0.000003	-0.000002	0.000000	0.000000
50.758816	10.877836	25.773319	-0.107736	0.088858	2.140980	0.000000	0.008721	0.000000	0.000002	-0.000002	0.000000	0.000000
51.092149	10.959993	25.718425	-0.138735	0.075823	2.143888	0.000000	0.008721	0.000000	0.000001	-0.000002	0.000000	0.000000
51.426732	11.063016	25.672586	-0.080100	-0.145530	2.146784	0.000000	-0.008695	0.000000	0.000001	-0.000002	0.000000	0.000000
51.724055	11.118689	25.762641	-0.079882	-0.220535	2.144200	0.000000	-0.013953	0.000000	0.000000	-0.000002	0.000000	0.000000
52.165015	11.334335	25.670497	-0.411012	0.428702	2.151636	0.000000	0.047709	0.000000	-0.000001	-0.000002	0.000000	0.000000
52.605975	11.849157	25.012224	-0.760920	1.058434	2.186356	0.000000	0.109914	0.000000	-0.000002	-0.000002	0.000000	0.000000
53.046935	12.686676	23.817775	-1.145593	1.640008	2.248756	0.000000	0.173372	0.000000	-0.000002	-0.000002	0.000000	0.000000
53.487895	13.885155	22.141494	-1.582604	2.146962	2.339547	0.000000	0.238804	0.000000	-0.000003	-0.000002	0.000000	0.000000
53.933855	15.519896	20.034590	-2.096146	2.557570	2.461267	0.000000	0.307354	0.000000	-0.000004	-0.000002	0.000000	0.000000
54.482915	17.624623	17.663732	-1.714491	1.785948	2.609844	0.000000	0.233050	0.000000	-0.000005	-0.000002	0.000000	0.000000
55.031975	19.240862	16.065800	-1.211733	1.141536	2.716427	0.000000	0.154611	0.000000	-0.000006	-0.000002	0.000000	0.000000
55.581035	20.254451	15.126977	-0.623384	0.578432	2.779124	0.000000	0.073431	0.000000	-0.000007	-0.000002	0.000000	0.000000
56.130095	20.593794	14.780392	0.008997	0.056528	2.796825	0.000000	-0.009053	0.000000	-0.000008	-0.000001	0.000000	0.000000
56.428668	20.624892	14.729659	-0.059342	0.074766	2.796304	0.000000	-0.001745	0.000000	-0.000008	-0.000001	0.000000	0.000000
56.762001	20.669860	14.687401	-0.075560	0.052010	2.795723	0.000000	-0.001745	0.000000	-0.000009	-0.000001	0.000000	0.000000
57.095334	20.725639	14.660313	-0.091779	0.029253	2.795142	0.000000	-0.001745	0.000000	-0.000009	-0.000001	0.000000	0.000000
57.429918	20.792502	14.648381	-0.108058	0.006411	2.794559	0.000000	-0.001745	0.000000	-0.000010	-0.000001	0.000000	0.000000
57.727240	20.861059	14.650603	-0.177035	0.024395	2.794041	0.000000	0.005556	0.000000	-0.000010	-0.000001	0.000000	0.000000
58.276300	20.699605	14.905091	0.469350	-0.490627	2.774452	0.000000	-0.076806	0.000000	-0.000011	-0.000001	0.000000	0.000000
58.825360	19.842427	15.740891	1.082582	-1.040596	2.709949	0.000000	-0.157806	0.000000	-0.000011	-0.000001	0.000000	0.000000
59.374420	18.350071	17.217536	1.619347	-1.664685	2.601677	0.000000	-0.236007	0.000000	-0.000011	-0.000000	0.000000	0.000000
59.923480	16.327951	19.440204	2.041729	-2.407345	2.451554	0.000000	-0.310022	0.000000	-0.000012	0.000000	0.000000	0.000000
60.369440	14.745298	21.415691	1.519707	-2.003697	2.328587	0.000000	-0.241740	0.000000	-0.000012	-0.000000	0.000000	0.000000
60.810400	13.607078	22.971123	1.071317	-1.510259	2.236437	0.000000	-0.176608	0.000000	-0.000012	-0.000001	0.000000	0.000000
61.251360	12.841307	24.059304	0.671871	-0.948106	2.172538	0.000000	-0.113487	0.000000	-0.000012	-0.000001	0.000000	0.000000
61.692320	12.412999	24.630723	0.303122	-0.342814	2.136162	0.000000	-0.051659	0.000000	-0.000012	-0.000001	0.000000	0.000000
62.134530	12.302639	24.658835	-0.021707	0.217543	2.126899	0.000000	0.004364	0.000000	-0.000013	-0.000001	0.000000	0.000000
62.431853	12.322736	24.533229	-0.045886	0.204915	2.128197	0.000000	0.004364	0.000000	-0.000013	-0.000001	0.000000	0.000000
62.765186	12.362363	24.401338	-0.072993	0.190757	2.129652	0.000000	0.004364	0.000000	-0.000014	-0.000001	0.000000	0.000000
63.098520	12.420061	24.278886	-0.100101	0.176600	2.131107	0.000000	0.004364	0.000000	-0.000014	-0.000001	0.000000	0.000000
63.433103	12.496149	24.165466	-0.127310	0.162389	2.132567	0.000000	0.004364	0.000000	-0.000015	-0.000001	0.000000	0.000000
63.730426	12.579042	24.072656	-0.120636	0.090719	2.133865	0.000000	-0.000870	0.000000	-0.000015	-0.000001	0.000000	0.000000
64.171386	12.845659	23.727549	-0.486287	0.688931	2.147023	0.000000	0.060600	0.000000	-0.000016	-0.000002	0.000000	0.000000
64.612346	13.443292	22.866726	-0.874155	1.255797	2.187412	0.000000	0.122759	0.000000	-0.000017	-0.000002	0.000000	0.000000
65.053306	14.399244	21.529355	-1.301960	1.765526	2.255493	0.000000	0.186317	0.000000	-0.000018	-0.000003	0.000000	0.000000
65.494266	15.757191	19.776284	-1.789249	2.194924	2.352042	0.000000	0.251997	0.000000	-0.000019	-0.000003	0.000000	0.000000
65.940226	17.602334	17.662477	-2.362973	2.525206	2.479731	0.000000	0.320949	0.000000	-0.000021	-0.000004	0.000000	0.000000
66.489286	19.967769	15.297846	-1.919683	1.806907	2.635587	0.000000	0.245928	0.000000	-0.000023	-0.000003	0.000000	0.000000
67.038346	21.768627	13.647114	-1.340796	1.217310	2.748991	0.000000	0.166545	0.000000	-0.000024	-0.000002	0.000000	0.000000
67.587406	22.877703	12.592703	-0.667202	0.714419	2.817933	0.000000	0.084208	0.000000	-0.000025	-0.000001	0.000000	0.000000
68.136466	23.216657	12.059511	0.053519	0.262414	2.841189	0.000000	0.000378	0.000000	-0.000026	-0.000001	0.000000	0.000000
68.435038	23.224770	11.892023	-0.020015	0.267033	2.843519	0.000000	0.007803	0.000000	-0.000026	-0.000001	0.000000	0.000000
68.768372	23.242899	11.724010	-0.034374	0.237004	2.846120	0.000000	0.007803	0.000000	-0.000026	-0.000001	0.000000	0.000000
69.101705	23.270601	11.576017	-0.048732	0.206975	2.848721	0.000000	0.007803	0.000000	-0.000026	-0.000001	0.000000	0.000000
69.436288	23.308033	11.447601	-0.063144	0.176834	2.851332	0.000000	0.007803	0.000000	-0.000026	-0.000001	0.000000	0.000000
69.733611	23.349389	11.350411	-0.136972	0.179712	2.853652	0.000000	0.015260	0.000000	-0.000027	-0.000001	0.000000	0.000000
70.282671	23.098780	11.380426	0.590704	-0.234700	2.838847	0.000000	-0.069111	0.000000	-0.000027	0.000000	0.000000	0.000000
