#ParticleID	Turn	x[m]	xp	y[m]	yp	z[m]	dE[GeV]# s	beta_x	beta_y	alpha_x	alpha_y	D_x	D_y	D_px	D_py	orbit_x	orbit_px	orbit_y	orbit_py
0.300000	11.817591	25.003417	-0.011439	-0.027436	2.618047	0.000000	0.000037	0.000000	-0.000001	0.000001	0.000000	0.000000
0.601250	11.832163	25.023580	-0.036934	-0.039494	2.618058	0.000000	0.000037	0.000000	-0.000000	0.000001	0.000000	0.000000
0.898573	11.861607	25.050603	-0.033009	-0.112825	2.618069	0.000000	-0.006383	0.000000	-0.000000	0.000001	0.000000	0.000000
1.339533	12.042893	24.872235	-0.379668	0.515785	2.631547	0.000000	0.067573	0.000000	0.000000	0.000001	0.000000	0.000000
1.780493	12.536369	24.147753	-0.743672	1.120928	2.677775	0.000000	0.142299	0.000000	0.000001	0.000001	0.000000	0.000000
2.221453	13.364581	22.910120	-1.141653	1.675069	2.757280	0.000000	0.218646	0.000000	0.000001	0.000001	0.000000	0.000000
2.662413	14.565366	21.215649	-1.591793	2.152996	2.870967	0.000000	0.297482	0.000000	0.000002	0.000001	0.000000	0.000000
3.108373	16.214344	19.116585	-2.118949	2.534095	3.021993	0.000000	0.380197	0.000000	0.000002	0.000001	0.000000	0.000000
3.657433	18.328869	16.759049	-1.709427	1.785017	3.205472	0.000000	0.287159	0.000000	0.000003	0.000001	0.000000	0.000000
4.206493	19.924321	15.149864	-1.179159	1.163081	3.336391	0.000000	0.189027	0.000000	0.000004	0.000001	0.000000	0.000000
4.755553	20.888003	14.174413	-0.565601	0.623990	3.412429	0.000000	0.087543	0.000000	0.000004	0.000001	0.000000	0.000000
5.304613	21.151847	13.763215	0.087908	0.129343	3.432237	0.000000	-0.015495	0.000000	0.000004	0.000001	0.000000	0.000000
5.603185	21.136573	13.671159	0.018514	0.143016	3.430288	0.000000	-0.006527	0.000000	0.000005	0.000001	0.000000	0.000000
5.936519	21.129489	13.584109	0.002738	0.118135	3.428112	0.000000	-0.006527	0.000000	0.000005	0.000001	0.000000	0.000000
6.269852	21.132922	13.513645	-0.013038	0.093255	3.425936	0.000000	-0.006527	0.000000	0.000005	0.000001	0.000000	0.000000
6.604435	21.146945	13.459598	-0.028873	0.068280	3.423752	0.000000	-0.006527	0.000000	0.000005	0.000001	0.000000	0.000000
6.901758	21.168298	13.425594	-0.098251	0.081164	3.421811	0.000000	0.002413	0.000000	0.000006	0.000001	0.000000	0.000000
7.450818	20.915403	13.597216	0.556121	-0.395583	3.394934	0.000000	-0.100172	0.000000	0.000006	0.000001	0.000000	0.000000
7.999878	19.961347	14.304671	1.171210	-0.900507	3.312136	0.000000	-0.200980	0.000000	0.000006	0.000000	0.000000	0.000000
8.548938	18.373520	15.598351	1.703571	-1.469572	3.174888	0.000000	-0.298223	0.000000	0.000006	0.000000	0.000000	0.000000
9.097998	16.264079	17.570401	2.115601	-2.143312	2.985623	0.000000	-0.390177	0.000000	0.000006	-0.000000	0.000000	0.000000
9.543958	14.618307	19.327609	1.587922	-1.780316	2.829927	0.000000	-0.308466	0.000000	0.000006	0.000000	0.000000	0.000000
9.984918	13.421230	20.707716	1.137082	-1.337551	2.711153	0.000000	-0.230753	0.000000	0.000007	0.000000	0.000000	0.000000
10.425878	12.597435	21.668909	0.738192	-0.833928	2.626035	0.000000	-0.155668	0.000000	0.000007	0.000000	0.000000	0.000000
10.866838	12.109284	22.167455	0.373027	-0.292362	2.573605	0.000000	-0.082356	0.000000	0.000007	0.000001	0.000000	0.000000
11.309048	11.934340	22.180150	0.054065	0.208058	2.553245	0.000000	-0.016243	0.000000	0.000007	0.000001	0.000000	0.000000
11.606371	11.909619	22.060587	0.029079	0.194072	2.548416	0.000000	-0.016243	0.000000	0.000008	0.000001	0.000000	0.000000
12.086371	11.901065	21.885115	-0.011259	0.171495	2.540619	0.000000	-0.016243	0.000000	0.000008	0.000001	0.000000	0.000000
12.566371	11.931236	21.731318	-0.051596	0.148917	2.532822	0.000000	-0.016243	0.000000	0.000008	0.000001	0.000000	0.000000
13.046371	12.000130	21.599195	-0.091934	0.126339	2.525025	0.000000	-0.016243	0.000000	0.000009	0.000001	0.000000	0.000000
13.526371	12.107749	21.488747	-0.132272	0.103761	2.517228	0.000000	-0.016243	0.000000	0.000009	0.000001	0.000000	0.000000
14.007621	12.254524	21.399770	-0.172714	0.081125	2.509411	0.000000	-0.016243	0.000000	0.000010	0.000001	0.000000	0.000000
14.304943	12.364656	21.355688	-0.167381	0.014774	2.504581	0.000000	-0.022384	0.000000	0.000010	0.000001	0.000000	0.000000
14.745903	12.670850	21.108913	-0.529631	0.542728	2.510343	0.000000	0.048547	0.000000	0.000010	0.000001	0.000000	0.000000
15.186863	13.305941	20.405677	-0.916078	1.045987	2.547476	0.000000	0.120031	0.000000	0.000011	0.000001	0.000000	0.000000
15.627823	14.298945	19.277977	-1.344379	1.501655	2.616401	0.000000	0.192882	0.000000	0.000011	0.000002	0.000000	0.000000
16.068783	15.695231	17.777122	-1.834100	1.888999	2.717903	0.000000	0.267930	0.000000	0.000012	0.000002	0.000000	0.000000
16.514743	17.582245	15.949898	-2.412374	2.191141	2.854834	0.000000	0.346492	0.000000	0.000013	0.000002	0.000000	0.000000
17.063803	20.005793	13.909598	-1.975492	1.546780	3.021344	0.000000	0.259145	0.000000	0.000014	0.000002	0.000000	0.000000
17.612863	21.869665	12.512595	-1.399071	1.012592	3.138560	0.000000	0.167201	0.000000	0.000015	0.000001	0.000000	0.000000
18.161923	23.042206	11.659383	-0.723827	0.550530	3.204405	0.000000	0.072291	0.000000	0.000016	0.000001	0.000000	0.000000
18.710983	23.440592	11.289190	0.002544	0.127680	3.217709	0.000000	-0.023900	0.000000	0.000016	0.000000	0.000000	0.000000
19.009556	23.479457	11.203427	-0.071475	0.130072	3.213082	0.000000	-0.015494	0.000000	0.000016	0.000000	0.000000	0.000000
19.342889	23.531863	11.126798	-0.085744	0.099815	3.207918	0.000000	-0.015494	0.000000	0.000016	0.000000	0.000000	0.000000
19.676223	23.593782	11.070340	-0.100014	0.069559	3.202753	0.000000	-0.015494	0.000000	0.000016	0.000000	0.000000	0.000000
20.010806	23.665793	11.033818	-0.231590	0.093858	3.197588	0.000000	0.000349	0.000000	0.000016	0.000000	0.000000	0.000000
20.308129	23.807443	10.986088	-0.307023	0.095375	3.197692	0.000000	0.008702	0.000000	0.000016	0.000000	0.000000	0.000000
20.857189	23.733974	11.103598	0.440039	-0.310658	3.176245	0.000000	-0.086709	0.000000	0.000017	-0.000000	0.000000	0.000000
21.406249	22.852423	11.676443	1.156020	-0.738819	3.102758	0.000000	-0.180582	0.000000	0.000016	-0.000001	0.000000	0.000000
21.955309	21.225059	12.745425	1.790344	-1.219604	2.978533	0.000000	-0.271252	0.000000	0.000016	-0.000001	0.000000	0.000000
22.504369	18.966829	14.386686	2.298208	-1.787259	2.805775	0.000000	-0.357111	0.000000	0.000015	-0.000002	0.000000	0.000000
22.950329	17.187163	15.860203	1.706520	-1.502947	2.663815	0.000000	-0.279887	0.000000	0.000014	-0.000001	0.000000	0.000000
23.391289	15.911448	17.035005	1.197494	-1.151107	2.556722	0.000000	-0.206306	0.000000	0.000014	-0.000001	0.000000	0.000000
23.832249	15.058922	17.875144	0.743179	-0.746892	2.481526	0.000000	-0.135074	0.000000	0.000014	-0.000001	0.000000	0.000000
24.273209	14.590637	18.342393	0.322818	-0.308694	2.437372	0.000000	-0.065380	0.000000	0.000014	-0.000000	0.000000	0.000000
24.715418	14.485315	18.415248	-0.047364	0.098326	2.423754	0.000000	-0.002375	0.000000	0.000014	0.000000	0.000000	0.000000
25.012741	14.519596	18.361626	-0.067936	0.082024	2.423048	0.000000	-0.002375	0.000000	0.000014	0.000000	0.000000	0.000000
25.346075	14.572575	18.313035	-0.091000	0.063748	2.422256	0.000000	-0.002375	0.000000	0.000014	0.000000	0.000000	0.000000
25.679408	14.640929	18.276628	-0.114063	0.045472	2.421465	0.000000	-0.002375	0.000000	0.000014	0.000000	0.000000	0.000000
26.013991	14.724703	18.252708	-0.017757	-0.120947	2.420646	0.000000	-0.022013	0.000000	0.000014	0.000000	0.000000	0.000000
26.311314	14.741267	18.329542	-0.001810	-0.182418	2.414101	0.000000	-0.027932	0.000000	0.000014	0.000000	0.000000	0.000000
26.752274	14.924488	18.291623	-0.415270	0.268084	2.416897	0.000000	0.040628	0.000000	0.000014	0.000000	0.000000	0.000000
27.193234	15.479304	17.860277	-0.847703	0.706389	2.449999	0.000000	0.109652	0.000000	0.000014	0.000001	0.000000	0.000000
27.634194	16.431064	17.055133	-1.318865	1.112553	2.513784	0.000000	0.179924	0.000000	0.000015	0.000001	0.000000	0.000000
28.075154	17.823250	15.912822	-1.850283	1.468098	2.608977	0.000000	0.252245	0.000000	0.000015	0.000001	0.000000	0.000000
28.521114	19.743657	14.468112	-2.471199	1.757757	2.738267	0.000000	0.327882	0.000000	0.000016	0.000002	0.000000	0.000000
29.070174	22.184508	12.858392	-1.947993	1.191323	2.895623	0.000000	0.244460	0.000000	0.000017	0.000001	0.000000	0.000000
29.619234	23.971396	11.820717	-1.287190	0.709743	3.005916	0.000000	0.156702	0.000000	0.000017	0.000001	0.000000	0.000000
30.168294	24.978104	11.281177	-0.535467	0.278718	3.067190	0.000000	0.066165	0.000000	0.000018	0.000000	0.000000	0.000000
30.717354	25.133523	11.201342	0.254080	-0.132456	3.078357	0.000000	-0.025547	0.000000	0.000018	-0.000000	0.000000	0.000000
31.015927	25.024681	11.271006	0.176119	-0.130132	3.073131	0.000000	-0.017505	0.000000	0.000018	-0.000000	0.000000	0.000000
31.349260	24.911846	11.367786	0.162386	-0.160207	3.067296	0.000000	-0.017505	0.000000	0.000017	-0.000000	0.000000	0.000000
31.682593	24.808167	11.484615	0.148652	-0.190282	3.061461	0.000000	-0.017505	0.000000	0.000017	-0.000000	0.000000	0.000000
32.017177	24.713306	11.622046	0.134867	-0.220470	3.055605	0.000000	-0.017505	0.000000	0.000017	-0.000000	0.000000	0.000000
32.314499	24.636750	11.761124	0.058256	-0.216571	3.050400	0.000000	-0.009536	0.000000	0.000017	-0.000000	0.000000	0.000000
32.863559	24.150685	12.238182	0.821772	-0.657421	3.020276	0.000000	-0.100034	0.000000	0.000017	-0.000001	0.000000	0.000000
33.412619	22.853254	13.222066	1.527243	-1.145098	2.940878	0.000000	-0.188758	0.000000	0.000016	-0.000001	0.000000	0.000000
33.961679	20.836102	14.782855	2.124836	-1.714337	2.813614	0.000000	-0.274134	0.000000	0.000015	-0.000002	0.000000	0.000000
34.510739	18.241710	17.031720	2.572342	-2.405685	2.640741	0.000000	-0.354647	0.000000	0.000014	-0.000002	0.000000	0.000000
34.956699	16.224488	19.043235	1.967189	-2.086009	2.498929	0.000000	-0.281702	0.000000	0.000013	-0.000002	0.000000	0.000000
35.397659	14.720298	20.706771	1.456922	-1.672166	2.390095	0.000000	-0.212394	0.000000	0.000013	-0.000002	0.000000	0.000000
35.838619	13.635180	21.970258	1.013219	-1.182241	2.311261	0.000000	-0.145504	0.000000	0.000012	-0.000001	0.000000	0.000000
36.279579	12.919560	22.776210	0.615806	-0.638525	2.261530	0.000000	-0.080272	0.000000	0.000011	-0.000001	0.000000	0.000000
36.721789	12.540049	23.088263	0.277171	-0.122424	2.240307	0.000000	-0.021448	0.000000	0.000011	-0.000001	0.000000	0.000000
37.019112	12.382822	23.164948	0.251640	-0.135495	2.233931	0.000000	-0.021448	0.000000	0.000011	-0.000001	0.000000	0.000000
37.352445	12.224603	23.260163	0.223016	-0.150149	2.226782	0.000000	-0.021448	0.000000	0.000010	-0.000001	0.000000	0.000000
37.685779	12.085467	23.365147	0.194392	-0.164802	2.219633	0.000000	-0.021448	0.000000	0.000010	-0.000001	0.000000	0.000000
38.020362	11.964999	23.480348	0.165661	-0.179511	2.212457	0.000000	-0.021448	0.000000	0.000010	-0.000001	0.000000	0.000000
38.317684	11.874081	23.590980	0.169246	-0.250429	2.206080	0.000000	-0.026857	0.000000	0.000010	-0.000001	0.000000	0.000000
38.758644	11.876216	23.550543	-0.174108	0.341782	2.208167	0.000000	0.036331	0.000000	0.000009	-0.000001	0.000000	0.000000
39.199604	12.183514	22.992712	-0.525418	0.918441	2.238182	0.000000	0.099933	0.000000	0.000009	-0.000000	0.000000	0.000000
39.640564	12.810012	21.942868	-0.900732	1.453313	2.296468	0.000000	0.164674	0.000000	0.000009	-0.000000	0.000000	0.000000
40.081524	13.784333	20.448779	-1.317197	1.922059	2.383687	0.000000	0.231290	0.000000	0.000009	0.000000	0.000000	0.000000
40.527484	15.168567	18.555853	-1.797669	2.304636	2.502305	0.000000	0.300946	0.000000	0.000009	0.000000	0.000000	0.000000
41.076544	16.935056	16.428700	-1.400583	1.592403	2.647008	0.000000	0.225374	0.000000	0.000010	0.000000	0.000000	0.000000
41.625604	18.208259	15.017165	-0.904567	0.993593	2.749058	0.000000	0.145805	0.000000	0.000010	-0.000000	0.000000	0.000000
42.174664	18.898243	14.220706	-0.344657	0.465555	2.806645	0.000000	0.063649	0.000000	0.000009	-0.000000	0.000000	0.000000
42.723724	18.956270	13.982594	0.239598	-0.029323	2.818746	0.000000	-0.019635	0.000000	0.000009	-0.000001	0.000000	0.000000
43.022297	18.847642	13.984666	0.173753	-0.014146	2.815083	0.000000	-0.012271	0.000000	0.000009	-0.000001	0.000000	0.000000
43.502297	18.693433	14.014724	0.147516	-0.048476	2.809194	0.000000	-0.012271	0.000000	0.000008	-0.000001	0.000000	0.000000
43.982297	18.564410	14.077740	0.121280	-0.082806	2.803304	0.000000	-0.012271	0.000000	0.000008	-0.000001	0.000000	0.000000
44.462297	18.460575	14.173713	0.095044	-0.117137	2.797415	0.000000	-0.012271	0.000000	0.000008	-0.000001	0.000000	0.000000
44.942297	18.381926	14.302642	0.068808	-0.151467	2.791525	0.000000	-0.012271	0.000000	0.000007	-0.000001	0.000000	0.000000
45.423547	18.328585	14.464814	-0.048307	-0.114219	2.785638	0.000000	0.001531	0.000000	0.000007	-0.000001	0.000000	0.000000
45.720870	18.362145	14.538925	-0.112541	-0.097057	2.786093	0.000000	0.008810	0.000000	0.000007	-0.000001	0.000000	0.000000
46.269930	18.176543	14.926714	0.448575	-0.613390	2.768356	0.000000	-0.073325	0.000000	0.000006	-0.000001	0.000000	0.000000
46.818990	17.388601	15.902020	0.978005	-1.173414	2.705814	0.000000	-0.154159	0.000000	0.000006	-0.000001	0.000000	0.000000
47.368050	16.053974	17.534311	1.438354	-1.817018	2.599574	0.000000	-0.232259	0.000000	0.000005	-0.000001	0.000000	0.000000
47.917110	14.266935	19.939853	1.797104	-2.590044	2.451523	0.000000	-0.306240	0.000000	0.000004	-0.000001	0.000000	0.000000
48.363070	12.876249	22.078606	1.332352	-2.185634	2.330246	0.000000	-0.237936	0.000000	0.000004	-0.000001	0.000000	0.000000
48.804030	11.881429	23.791058	0.932240	-1.683052	2.239787	0.000000	-0.172739	0.000000	0.000003	-0.000001	0.000000	0.000000
49.244990	11.219431	25.024683	0.574720	-1.103893	2.177616	0.000000	-0.109510	0.000000	0.000003	-0.000001	0.000000	0.000000
49.685950	10.860012	25.723353	0.243456	-0.474507	2.143026	0.000000	-0.047528	0.000000	0.000002	-0.000001	0.000000	0.000000
50.128160	10.786875	25.854996	-0.050348	0.113016	2.135633	0.000000	0.008675	0.000000	0.000002	-0.000001	0.000000	0.000000
50.425482	10.825030	25.791255	-0.077981	0.101369	2.138212	0.000000	0.008675	0.000000	0.000001	-0.000001	0.000000	0.000000
50.758816	10.887345	25.728028	-0.108961	0.088312	2.141105	0.000000	0.008675	0.000000	0.000001	-0.000001	0.000000	0.000000
51.092149	10.970312	25.673505	-0.139942	0.075255	2.143997	0.000000	0.008675	0.000000	0.000000	-0.000001	0.000000	0.000000
51.426732	11.074136	25.628052	-0.081197	-0.145758	2.146878	0.000000	-0.008742	0.000000	0.000000	-0.000001	0.000000	0.000000
51.724055	11.130455	25.718249	-0.080927	-0.220676	2.144279	0.000000	-0.014000	0.000000	-0.000000	-0.000001	0.000000	0.000000
52.165015	11.347149	25.626747	-0.412352	0.427392	2.151695	0.000000	0.047664	0.000000	-0.000001	-0.000001	0.000000	0.000000
52.605975	11.863305	24.970126	-0.762615	1.056014	2.186396	0.000000	0.109871	0.000000	-0.000001	-0.000001	0.000000	0.000000
53.046935	12.702503	23.778260	-1.147721	1.636588	2.248777	0.000000	0.173329	0.000000	-0.000002	-0.000001	0.000000	0.000000
53.487895	13.903084	22.105380	-1.585262	2.142699	2.339548	0.000000	0.238761	0.000000	-0.000002	-0.000001	0.000000	0.000000
53.933855	15.540480	20.002587	-2.099460	2.552655	2.461249	0.000000	0.307312	0.000000	-0.000003	-0.000001	0.000000	0.000000
54.482915	17.648570	17.636423	-1.717266	1.782265	2.609803	0.000000	0.233008	0.000000	-0.000003	-0.000001	0.000000	0.000000
55.031975	19.267469	16.041982	-1.213772	1.138822	2.716362	0.000000	0.154572	0.000000	-0.000004	-0.000001	0.000000	0.000000
55.581035	20.282825	15.105697	-0.624544	0.576495	2.779038	0.000000	0.073393	0.000000	-0.000005	-0.000001	0.000000	0.000000
56.130095	20.622919	14.760878	0.008798	0.055230	2.796719	0.000000	-0.009087	0.000000	-0.000005	-0.000001	0.000000	0.000000
56.428668	20.654175	14.710959	-0.059595	0.073394	2.796188	0.000000	-0.001779	0.000000	-0.000005	-0.000001	0.000000	0.000000
56.762001	20.699303	14.669624	-0.075791	0.050613	2.795595	0.000000	-0.001779	0.000000	-0.000005	-0.000001	0.000000	0.000000
57.095334	20.755229	14.643476	-0.091987	0.027832	2.795002	0.000000	-0.001779	0.000000	-0.000006	-0.000001	0.000000	0.000000
57.429918	20.822223	14.632502	-0.108244	0.004965	2.794407	0.000000	-0.001779	0.000000	-0.000006	-0.000001	0.000000	0.000000
57.727240	20.890885	14.635591	-0.177277	0.022888	2.793878	0.000000	0.005521	0.000000	-0.000006	-0.000001	0.000000	0.000000
58.276300	20.729147	14.891506	0.470106	-0.491735	2.774271	0.000000	-0.076836	0.000000	-0.000007	-0.000001	0.000000	0.000000
58.825360	19.870611	15.728340	1.084284	-1.041383	2.709754	0.000000	-0.157830	0.000000	-0.000007	-0.000000	0.000000	0.000000
59.374420	18.375921	17.205700	1.621873	-1.665207	2.601469	0.000000	-0.236025	0.000000	-0.000007	-0.000000	0.000000	0.000000
59.923480	16.350653	19.428814	2.044901	-2.407639	2.451339	0.000000	-0.310033	0.000000	-0.000007	0.000000	0.000000	0.000000
60.369440	14.765482	21.404748	1.522201	-2.004402	2.328366	0.000000	-0.241756	0.000000	-0.000007	-0.000000	0.000000	0.000000
60.810400	13.625318	22.960971	1.073250	-1.511339	2.236208	0.000000	-0.176630	0.000000	-0.000007	-0.000000	0.000000	0.000000
61.251360	12.858055	24.050253	0.673333	-0.949512	2.172298	0.000000	-0.113515	0.000000	-0.000007	-0.000000	0.000000	0.000000
61.692320	12.428640	24.623032	0.304179	-0.344483	2.135907	0.000000	-0.051694	0.000000	-0.000007	-0.000001	0.000000	0.000000
62.134530	12.317507	24.652709	-0.020972	0.215706	2.126628	0.000000	0.004324	0.000000	-0.000008	-0.000001	0.000000	0.000000
62.431853	12.337158	24.528193	-0.045120	0.203084	2.127913	0.000000	0.004324	0.000000	-0.000008	-0.000001	0.000000	0.000000
62.765186	12.376263	24.397520	-0.072194	0.188934	2.129355	0.000000	0.004324	0.000000	-0.000008	-0.000001	0.000000	0.000000
63.098520	12.433417	24.276281	-0.099268	0.174784	2.130796	0.000000	0.004324	0.000000	-0.000009	-0.000001	0.000000	0.000000
63.433103	12.508935	24.164074	-0.126443	0.160580	2.132243	0.000000	0.004324	0.000000	-0.000009	-0.000001	0.000000	0.000000
63.730426	12.591304	24.072338	-0.119711	0.088921	2.133529	0.000000	-0.000909	0.000000	-0.000009	-0.000001	0.000000	0.000000
64.171386	12.857221	23.728805	-0.485617	0.687171	2.146667	0.000000	0.060552	0.000000	-0.000009	-0.000001	0.000000	0.000000
64.612346	13.454364	22.869487	-0.873709	1.254156	2.187033	0.000000	0.122702	0.000000	-0.000010	-0.000001	0.000000	0.000000
65.053306	14.410015	21.533483	-1.301719	1.764078	2.255086	0.000000	0.186250	0.000000	-0.000011	-0.000002	0.000000	0.000000
65.494266	15.767835	19.781580	-1.789200	2.193735	2.351603	0.000000	0.251919	0.000000	-0.000011	-0.000002	0.000000	0.000000
65.940226	17.613021	17.668695	-2.363117	2.524334	2.479253	0.000000	0.320859	0.000000	-0.000012	-0.000002	0.000000	0.000000
66.489286	19.978368	15.305023	-1.919377	1.806021	2.635063	0.000000	0.245854	0.000000	-0.000013	-0.000002	0.000000	0.000000
67.038346	21.778652	13.655301	-1.340063	1.216346	2.748431	0.000000	0.166489	0.000000	-0.000014	-0.000001	0.000000	0.000000
67.587406	22.886711	12.602021	-0.666093	0.713310	2.817346	0.000000	0.084170	0.000000	-0.000015	-0.000001	0.000000	0.000000
68.136466	23.224277	12.070162	0.054926	0.261081	2.840587	0.000000	0.000359	0.000000	-0.000015	-0.000000	0.000000	0.000000
68.435038	23.231556	11.903442	-0.018619	0.265767	2.842910	0.000000	0.007782	0.000000	-0.000015	-0.000000	0.000000	0.000000
68.768372	23.248753	11.736258	-0.032972	0.235786	2.845504	0.000000	0.007782	0.000000	-0.000015	-0.000000	0.000000	0.000000
69.101705	23.275519	11.589061	-0.047325	0.205805	2.848098	0.000000	0.007782	0.000000	-0.000015	-0.000000	0.000000	0.000000
69.436288	23.312008	11.461412	-0.061733	0.175712	2.850702	0.000000	0.007782	0.000000	-0.000016	-0.000000	0.000000	0.000000
69.733611	23.352524	11.364877	-0.135559	0.178668	2.853016	0.000000	0.015237	0.000000	-0.000016	-0.000000	0.000000	0.000000
70.282671	23.100319	11.396264	0.592180	-0.236171	2.838203	0.000000	-0.069114	0.000000	-0.000016	0.000000	0.000000	0.000000
