#ParticleID	Turn	x[m]	xp	y[m]	yp	z[m]	dE[GeV]# s	beta_x	beta_y	alpha_x	alpha_y	D_x	D_y	D_px	D_py	orbit_x	orbit_px	orbit_y	orbit_py
0.300000	11.816863	25.006446	-0.011352	-0.027409	2.618048	0.000000	0.000038	0.000000	-0.000001	0.000001	0.000000	0.000000
0.601250	11.831384	25.026592	-0.036848	-0.039465	2.618059	0.000000	0.000038	0.000000	-0.000001	0.000001	0.000000	0.000000
0.898573	11.860777	25.053597	-0.032926	-0.112803	2.618071	0.000000	-0.006382	0.000000	-0.000001	0.000001	0.000000	0.000000
1.339533	12.041982	24.875174	-0.379564	0.515886	2.631549	0.000000	0.067574	0.000000	-0.000000	0.000001	0.000000	0.000000
1.780493	12.535355	24.150570	-0.743543	1.121103	2.677778	0.000000	0.142300	0.000000	0.000000	0.000001	0.000000	0.000000
2.221453	13.363439	22.912754	-1.141492	1.675310	2.757284	0.000000	0.218647	0.000000	0.000001	0.000001	0.000000	0.000000
2.662413	14.564066	21.218045	-1.591593	2.153292	2.870972	0.000000	0.297484	0.000000	0.000001	0.000001	0.000000	0.000000
3.108373	16.212844	19.118696	-2.118701	2.534433	3.021998	0.000000	0.380199	0.000000	0.000001	0.000001	0.000000	0.000000
3.657433	18.327116	16.760837	-1.709216	1.785272	3.205478	0.000000	0.287160	0.000000	0.000002	0.000001	0.000000	0.000000
4.206493	19.922364	15.151409	-1.179002	1.163272	3.336398	0.000000	0.189028	0.000000	0.000002	0.000001	0.000000	0.000000
4.755553	20.885909	14.175778	-0.565508	0.624129	3.412437	0.000000	0.087544	0.000000	0.000003	0.000001	0.000000	0.000000
5.304613	21.149690	13.764450	0.087930	0.129442	3.432245	0.000000	-0.015494	0.000000	0.000003	0.000001	0.000000	0.000000
5.603185	21.134400	13.672333	0.018539	0.143120	3.430297	0.000000	-0.006526	0.000000	0.000004	0.000001	0.000000	0.000000
5.936519	21.127300	13.585213	0.002762	0.118240	3.428121	0.000000	-0.006526	0.000000	0.000004	0.000001	0.000000	0.000000
6.269852	21.130718	13.514680	-0.013016	0.093360	3.425945	0.000000	-0.006526	0.000000	0.000004	0.000001	0.000000	0.000000
6.604435	21.144726	13.460562	-0.028853	0.068388	3.423761	0.000000	-0.006526	0.000000	0.000004	0.000001	0.000000	0.000000
6.901758	21.166068	13.426493	-0.098227	0.081276	3.421821	0.000000	0.002414	0.000000	0.000004	0.000001	0.000000	0.000000
7.450818	20.913187	13.598006	0.556070	-0.395495	3.394943	0.000000	-0.100171	0.000000	0.000005	0.000001	0.000000	0.000000
7.999878	19.959227	14.305375	1.171088	-0.900436	3.312146	0.000000	-0.200980	0.000000	0.000005	0.000000	0.000000	0.000000
8.548938	18.371569	15.598983	1.703387	-1.469513	3.174898	0.000000	-0.298223	0.000000	0.000005	0.000000	0.000000	0.000000
9.097998	16.262359	17.570973	2.115367	-2.143260	2.985633	0.000000	-0.390177	0.000000	0.000005	0.000000	0.000000	0.000000
9.543958	14.616773	19.328125	1.587739	-1.780242	2.829937	0.000000	-0.308467	0.000000	0.000005	0.000000	0.000000	0.000000
9.984918	13.419838	20.708156	1.136941	-1.337456	2.711162	0.000000	-0.230753	0.000000	0.000006	0.000000	0.000000	0.000000
10.425878	12.596151	21.669258	0.738086	-0.833817	2.626045	0.000000	-0.155668	0.000000	0.000006	0.000000	0.000000	0.000000
10.866838	12.108079	22.167701	0.372953	-0.292240	2.573615	0.000000	-0.082355	0.000000	0.000006	0.000001	0.000000	0.000000
11.309048	11.933188	22.180286	0.054016	0.208183	2.553256	0.000000	-0.016242	0.000000	0.000006	0.000001	0.000000	0.000000
11.606371	11.908498	22.060649	0.029027	0.194198	2.548427	0.000000	-0.016242	0.000000	0.000007	0.000001	0.000000	0.000000
12.086371	11.899995	21.885057	-0.011314	0.171619	2.540630	0.000000	-0.016242	0.000000	0.000007	0.000001	0.000000	0.000000
12.566371	11.930220	21.731141	-0.051655	0.149040	2.532833	0.000000	-0.016242	0.000000	0.000007	0.000001	0.000000	0.000000
13.046371	11.999173	21.598900	-0.091997	0.126461	2.525037	0.000000	-0.016242	0.000000	0.000008	0.000001	0.000000	0.000000
13.526371	12.106854	21.488335	-0.132338	0.103883	2.517240	0.000000	-0.016242	0.000000	0.000008	0.000001	0.000000	0.000000
14.007621	12.253694	21.399242	-0.172784	0.081245	2.509423	0.000000	-0.016242	0.000000	0.000008	0.000001	0.000000	0.000000
14.304943	12.363869	21.355089	-0.167455	0.014895	2.504594	0.000000	-0.022384	0.000000	0.000009	0.000001	0.000000	0.000000
14.745903	12.670120	21.108215	-0.529690	0.542829	2.510357	0.000000	0.048548	0.000000	0.000009	0.000001	0.000000	0.000000
15.186863	13.305257	20.404900	-0.916124	1.046066	2.547490	0.000000	0.120032	0.000000	0.000009	0.000001	0.000000	0.000000
15.627823	14.298297	19.277142	-1.344413	1.501707	2.616415	0.000000	0.192884	0.000000	0.000010	0.000001	0.000000	0.000000
16.068783	15.694608	17.776255	-1.834125	1.889021	2.717919	0.000000	0.267932	0.000000	0.000011	0.000002	0.000000	0.000000
16.514743	17.581641	15.949024	-2.412391	2.191133	2.854851	0.000000	0.346494	0.000000	0.000012	0.000002	0.000000	0.000000
17.063803	20.005225	13.908724	-1.975538	1.546790	3.021362	0.000000	0.259147	0.000000	0.000013	0.000002	0.000000	0.000000
17.612863	21.869161	12.511700	-1.399142	1.012621	3.138580	0.000000	0.167202	0.000000	0.000013	0.000001	0.000000	0.000000
18.161923	23.041791	11.658445	-0.723919	0.550580	3.204424	0.000000	0.072292	0.000000	0.000014	0.000001	0.000000	0.000000
18.710983	23.440286	11.288184	0.002439	0.127755	3.217729	0.000000	-0.023900	0.000000	0.000014	0.000000	0.000000	0.000000
19.009556	23.479214	11.202378	-0.071580	0.130141	3.213103	0.000000	-0.015494	0.000000	0.000014	0.000000	0.000000	0.000000
19.342889	23.531690	11.125704	-0.085850	0.099882	3.207938	0.000000	-0.015494	0.000000	0.000015	0.000000	0.000000	0.000000
19.676223	23.593680	11.069202	-0.100120	0.069622	3.202773	0.000000	-0.015494	0.000000	0.000015	0.000000	0.000000	0.000000
20.010806	23.665762	11.032639	-0.231696	0.093912	3.197609	0.000000	0.000349	0.000000	0.000015	0.000000	0.000000	0.000000
20.308129	23.807475	10.984878	-0.307131	0.095423	3.197713	0.000000	0.008703	0.000000	0.000015	0.000000	0.000000	0.000000
20.857189	23.734124	11.102317	0.439935	-0.310576	3.176266	0.000000	-0.086709	0.000000	0.000015	-0.000000	0.000000	0.000000
21.406249	22.852682	11.675049	1.155926	-0.738695	3.102779	0.000000	-0.180583	0.000000	0.000015	-0.000000	0.000000	0.000000
21.955309	21.225412	12.743869	1.790268	-1.219431	2.978553	0.000000	-0.271254	0.000000	0.000014	-0.000001	0.000000	0.000000
22.504369	18.967255	14.384906	2.298154	-1.787023	2.805794	0.000000	-0.357113	0.000000	0.000014	-0.000001	0.000000	0.000000
22.950329	17.187637	15.858231	1.706463	-1.502752	2.663833	0.000000	-0.279889	0.000000	0.000013	-0.000001	0.000000	0.000000
23.391289	15.911975	17.032883	1.197432	-1.150962	2.556739	0.000000	-0.206307	0.000000	0.000013	-0.000001	0.000000	0.000000
23.832249	15.059508	17.872919	0.743108	-0.746805	2.481543	0.000000	-0.135074	0.000000	0.000013	-0.000000	0.000000	0.000000
24.273209	14.591291	18.340118	0.322734	-0.308668	2.437389	0.000000	-0.065381	0.000000	0.000013	-0.000000	0.000000	0.000000
24.715418	14.486049	18.412977	-0.047461	0.098296	2.423771	0.000000	-0.002375	0.000000	0.000013	0.000000	0.000000	0.000000
25.012741	14.520388	18.359373	-0.068032	0.081992	2.423065	0.000000	-0.002375	0.000000	0.000013	0.000000	0.000000	0.000000
25.346075	14.573430	18.310804	-0.091095	0.063714	2.422273	0.000000	-0.002375	0.000000	0.000013	0.000000	0.000000	0.000000
25.679408	14.641847	18.274421	-0.114157	0.045436	2.421482	0.000000	-0.002375	0.000000	0.000013	0.000000	0.000000	0.000000
26.013991	14.725684	18.250525	-0.017842	-0.120968	2.420662	0.000000	-0.022013	0.000000	0.000013	0.000000	0.000000	0.000000
26.311314	14.742298	18.327373	-0.001891	-0.182436	2.414118	0.000000	-0.027932	0.000000	0.000013	0.000000	0.000000	0.000000
26.752274	14.925602	18.289495	-0.415378	0.268008	2.416914	0.000000	0.040629	0.000000	0.000013	0.000000	0.000000	0.000000
27.193234	15.480526	17.858242	-0.847842	0.706258	2.450016	0.000000	0.109652	0.000000	0.000013	0.000001	0.000000	0.000000
27.634194	16.432425	17.053235	-1.319042	1.112373	2.513801	0.000000	0.179925	0.000000	0.000014	0.000001	0.000000	0.000000
28.075154	17.824787	15.911102	-1.850506	1.467877	2.608995	0.000000	0.252246	0.000000	0.000014	0.000001	0.000000	0.000000
28.521114	19.745416	14.466604	-2.471479	1.757505	2.738286	0.000000	0.327884	0.000000	0.000015	0.000002	0.000000	0.000000
29.070174	22.186551	12.857127	-1.948227	1.191129	2.895643	0.000000	0.244462	0.000000	0.000016	0.000001	0.000000	0.000000
29.619234	23.973663	11.819640	-1.287362	0.709594	3.005937	0.000000	0.156703	0.000000	0.000016	0.000001	0.000000	0.000000
30.168294	24.980519	11.280246	-0.535564	0.278601	3.067211	0.000000	0.066165	0.000000	0.000017	0.000000	0.000000	0.000000
30.717354	25.136000	11.200524	0.254063	-0.132547	3.078378	0.000000	-0.025547	0.000000	0.000017	-0.000000	0.000000	0.000000
31.015927	25.027173	11.270245	0.176097	-0.130228	3.073151	0.000000	-0.017505	0.000000	0.000017	-0.000000	0.000000	0.000000
31.349260	24.914352	11.367089	0.162365	-0.160306	3.067317	0.000000	-0.017505	0.000000	0.000016	-0.000000	0.000000	0.000000
31.682593	24.810686	11.483985	0.148633	-0.190384	3.061482	0.000000	-0.017505	0.000000	0.000016	-0.000000	0.000000	0.000000
32.017177	24.715838	11.621485	0.134850	-0.220574	3.055625	0.000000	-0.017505	0.000000	0.000016	-0.000000	0.000000	0.000000
32.314499	24.639292	11.760625	0.058232	-0.216679	3.050420	0.000000	-0.009536	0.000000	0.000016	-0.000000	0.000000	0.000000
32.863559	24.153205	12.237797	0.821833	-0.657521	3.020296	0.000000	-0.100035	0.000000	0.000016	-0.000001	0.000000	0.000000
33.412619	22.855663	13.221789	1.527384	-1.145196	2.940897	0.000000	-0.188759	0.000000	0.000015	-0.000001	0.000000	0.000000
33.961679	20.838316	14.782688	2.125047	-1.714442	2.813632	0.000000	-0.274136	0.000000	0.000015	-0.000002	0.000000	0.000000
34.510739	18.243661	17.031675	2.572608	-2.405803	2.640758	0.000000	-0.354650	0.000000	0.000014	-0.000002	0.000000	0.000000
34.956699	16.226228	19.043302	1.967397	-2.086140	2.498944	0.000000	-0.281704	0.000000	0.000013	-0.000002	0.000000	0.000000
35.397659	14.721877	20.706957	1.457082	-1.672305	2.390109	0.000000	-0.212396	0.000000	0.000012	-0.000002	0.000000	0.000000
35.838619	13.636638	21.970568	1.013337	-1.182381	2.311275	0.000000	-0.145506	0.000000	0.000011	-0.000001	0.000000	0.000000
36.279579	12.920930	22.776642	0.615888	-0.638660	2.261543	0.000000	-0.080274	0.000000	0.000011	-0.000001	0.000000	0.000000
36.721789	12.541361	23.088810	0.277224	-0.122550	2.240320	0.000000	-0.021449	0.000000	0.000011	-0.000001	0.000000	0.000000
37.019112	12.384101	23.165570	0.251695	-0.135620	2.233943	0.000000	-0.021449	0.000000	0.000010	-0.000001	0.000000	0.000000
37.352445	12.225845	23.260868	0.223073	-0.150274	2.226793	0.000000	-0.021449	0.000000	0.000010	-0.000001	0.000000	0.000000
37.685779	12.086670	23.365935	0.194452	-0.164928	2.219644	0.000000	-0.021449	0.000000	0.000010	-0.000001	0.000000	0.000000
38.020362	11.966161	23.481221	0.165723	-0.179637	2.212468	0.000000	-0.021449	0.000000	0.000010	-0.000001	0.000000	0.000000
38.317684	11.875205	23.591927	0.169313	-0.250557	2.206091	0.000000	-0.026858	0.000000	0.000009	-0.000001	0.000000	0.000000
38.758644	11.877293	23.551592	-0.174067	0.341680	2.208178	0.000000	0.036330	0.000000	0.000009	-0.000000	0.000000	0.000000
39.199604	12.184564	22.993837	-0.525399	0.918372	2.238193	0.000000	0.099933	0.000000	0.000009	-0.000000	0.000000	0.000000
39.640564	12.811055	21.944040	-0.900735	1.453278	2.296478	0.000000	0.164674	0.000000	0.000009	0.000000	0.000000	0.000000
40.081524	13.785390	20.449965	-1.317223	1.922061	2.383697	0.000000	0.231290	0.000000	0.000009	0.000000	0.000000	0.000000
40.527484	15.169657	18.557022	-1.797718	2.304674	2.502315	0.000000	0.300946	0.000000	0.000009	0.000000	0.000000	0.000000
41.076544	16.936178	16.429844	-1.400591	1.592411	2.647018	0.000000	0.225374	0.000000	0.000009	0.000000	0.000000	0.000000
41.625604	18.209367	15.018317	-0.904534	0.993571	2.749068	0.000000	0.145805	0.000000	0.000009	-0.000000	0.000000	0.000000
42.174664	18.899292	14.221900	-0.344584	0.465502	2.806655	0.000000	0.063649	0.000000	0.000009	-0.000000	0.000000	0.000000
42.723724	18.957220	13.983865	0.239705	-0.029411	2.818756	0.000000	-0.019636	0.000000	0.000009	-0.000001	0.000000	0.000000
43.022297	18.848530	13.985986	0.173857	-0.014229	2.815092	0.000000	-0.012271	0.000000	0.000009	-0.000001	0.000000	0.000000
43.502297	18.694220	14.016123	0.147621	-0.048556	2.809202	0.000000	-0.012271	0.000000	0.000008	-0.000001	0.000000	0.000000
43.982297	18.565096	14.079214	0.121385	-0.082883	2.803312	0.000000	-0.012271	0.000000	0.000008	-0.000001	0.000000	0.000000
44.462297	18.461160	14.175258	0.095150	-0.117210	2.797422	0.000000	-0.012271	0.000000	0.000008	-0.000001	0.000000	0.000000
44.942297	18.382409	14.304257	0.068914	-0.151537	2.791532	0.000000	-0.012271	0.000000	0.000007	-0.000001	0.000000	0.000000
45.423547	18.328966	14.466495	-0.048203	-0.114278	2.785644	0.000000	0.001530	0.000000	0.000007	-0.000001	0.000000	0.000000
45.720870	18.362464	14.540640	-0.112437	-0.097109	2.786099	0.000000	0.008809	0.000000	0.000007	-0.000001	0.000000	0.000000
46.269930	18.176743	14.928515	0.448686	-0.613496	2.768362	0.000000	-0.073326	0.000000	0.000007	-0.000001	0.000000	0.000000
46.818990	17.388677	15.903970	0.978116	-1.173581	2.705818	0.000000	-0.154160	0.000000	0.000006	-0.000001	0.000000	0.000000
47.368050	16.053931	17.536484	1.438457	-1.817258	2.599579	0.000000	-0.232261	0.000000	0.000005	-0.000001	0.000000	0.000000
47.917110	14.266786	19.942337	1.797193	-2.590374	2.451526	0.000000	-0.306241	0.000000	0.000005	-0.000001	0.000000	0.000000
48.363070	12.876025	22.081361	1.332435	-2.185909	2.330249	0.000000	-0.237937	0.000000	0.000004	-0.000001	0.000000	0.000000
48.804030	11.881132	23.794026	0.932321	-1.683260	2.239789	0.000000	-0.172741	0.000000	0.000003	-0.000001	0.000000	0.000000
49.244990	11.219062	25.027802	0.574803	-1.104023	2.177618	0.000000	-0.109512	0.000000	0.000003	-0.000001	0.000000	0.000000
49.685950	10.859566	25.726551	0.243546	-0.474555	2.143027	0.000000	-0.047530	0.000000	0.000002	-0.000001	0.000000	0.000000
50.128160	10.786347	25.858198	-0.050250	0.113045	2.135633	0.000000	0.008674	0.000000	0.000002	-0.000001	0.000000	0.000000
50.425482	10.824444	25.794438	-0.077884	0.101400	2.138212	0.000000	0.008674	0.000000	0.000002	-0.000001	0.000000	0.000000
50.758816	10.886694	25.731190	-0.108866	0.088345	2.141104	0.000000	0.008674	0.000000	0.000001	-0.000001	0.000000	0.000000
51.092149	10.969598	25.676645	-0.139847	0.075289	2.143996	0.000000	0.008674	0.000000	0.000001	-0.000001	0.000000	0.000000
51.426732	11.073359	25.631169	-0.081110	-0.145748	2.146876	0.000000	-0.008743	0.000000	0.000001	-0.000001	0.000000	0.000000
51.724055	11.129627	25.721359	-0.080844	-0.220671	2.144277	0.000000	-0.014001	0.000000	0.000000	-0.000001	0.000000	0.000000
52.165015	11.346239	25.629817	-0.412248	0.427479	2.151692	0.000000	0.047663	0.000000	0.000000	-0.000001	0.000000	0.000000
52.605975	11.862291	24.973084	-0.762485	1.056179	2.186392	0.000000	0.109870	0.000000	-0.000000	-0.000001	0.000000	0.000000
53.046935	12.701361	23.781041	-1.147559	1.636824	2.248773	0.000000	0.173328	0.000000	-0.000001	-0.000001	0.000000	0.000000
53.487895	13.901783	22.107926	-1.585061	2.142994	2.339544	0.000000	0.238760	0.000000	-0.000001	-0.000001	0.000000	0.000000
53.933855	15.538979	20.004848	-2.099211	2.552997	2.461244	0.000000	0.307310	0.000000	-0.000002	-0.000001	0.000000	0.000000
54.482915	17.646815	17.638357	-1.717055	1.782520	2.609796	0.000000	0.233007	0.000000	-0.000002	-0.000001	0.000000	0.000000
55.031975	19.265510	16.043676	-1.213615	1.139009	2.716355	0.000000	0.154570	0.000000	-0.000003	-0.000001	0.000000	0.000000
55.581035	20.280728	15.107216	-0.624451	0.576627	2.779031	0.000000	0.073392	0.000000	-0.000003	-0.000001	0.000000	0.000000
56.130095	20.620759	14.762278	0.008820	0.055316	2.796710	0.000000	-0.009088	0.000000	-0.000004	-0.000001	0.000000	0.000000
56.428668	20.651998	14.712305	-0.059568	0.073485	2.796179	0.000000	-0.001780	0.000000	-0.000004	-0.000001	0.000000	0.000000
56.762001	20.697109	14.670908	-0.075766	0.050706	2.795586	0.000000	-0.001780	0.000000	-0.000004	-0.000001	0.000000	0.000000
57.095334	20.753019	14.644697	-0.091964	0.027927	2.794993	0.000000	-0.001780	0.000000	-0.000004	-0.000001	0.000000	0.000000
57.429918	20.819998	14.633659	-0.108222	0.005062	2.794397	0.000000	-0.001780	0.000000	-0.000005	-0.000001	0.000000	0.000000
57.727240	20.888647	14.636690	-0.177250	0.022988	2.793868	0.000000	0.005520	0.000000	-0.000005	-0.000001	0.000000	0.000000
58.276300	20.726921	14.892511	0.470058	-0.491664	2.774261	0.000000	-0.076837	0.000000	-0.000005	-0.000001	0.000000	0.000000
58.825360	19.868478	15.729281	1.084164	-1.041337	2.709743	0.000000	-0.157830	0.000000	-0.000006	-0.000000	0.000000	0.000000
59.374420	18.373955	17.206601	1.621690	-1.665181	2.601459	0.000000	-0.236025	0.000000	-0.000006	-0.000000	0.000000	0.000000
59.923480	16.348918	19.429698	2.044668	-2.407633	2.451329	0.000000	-0.310032	0.000000	-0.000006	-0.000000	0.000000	0.000000
60.369440	14.763931	21.405613	1.522018	-2.004365	2.328356	0.000000	-0.241756	0.000000	-0.000006	-0.000000	0.000000	0.000000
60.810400	13.623909	22.961791	1.073110	-1.511274	2.236198	0.000000	-0.176630	0.000000	-0.000006	-0.000000	0.000000	0.000000
61.251360	12.856753	24.051004	0.673229	-0.949421	2.172288	0.000000	-0.113516	0.000000	-0.000006	-0.000000	0.000000	0.000000
61.692320	12.427416	24.623693	0.304106	-0.344370	2.135897	0.000000	-0.051694	0.000000	-0.000006	-0.000001	0.000000	0.000000
62.134530	12.316335	24.653263	-0.021020	0.215834	2.126617	0.000000	0.004323	0.000000	-0.000007	-0.000001	0.000000	0.000000
62.431853	12.336015	24.528671	-0.045171	0.203212	2.127902	0.000000	0.004323	0.000000	-0.000007	-0.000001	0.000000	0.000000
62.765186	12.375154	24.397913	-0.072247	0.189061	2.129344	0.000000	0.004323	0.000000	-0.000007	-0.000001	0.000000	0.000000
63.098520	12.432345	24.276590	-0.099323	0.174910	2.130785	0.000000	0.004323	0.000000	-0.000007	-0.000001	0.000000	0.000000
63.433103	12.507902	24.164298	-0.126501	0.160707	2.132231	0.000000	0.004323	0.000000	-0.000008	-0.000001	0.000000	0.000000
63.730426	12.590306	24.072487	-0.119775	0.089047	2.133517	0.000000	-0.000910	0.000000	-0.000008	-0.000001	0.000000	0.000000
64.171386	12.856269	23.728842	-0.485660	0.687298	2.146654	0.000000	0.060551	0.000000	-0.000008	-0.000001	0.000000	0.000000
64.612346	13.453441	22.869415	-0.873733	1.254278	2.187020	0.000000	0.122700	0.000000	-0.000009	-0.000001	0.000000	0.000000
65.053306	14.409105	21.533307	-1.301724	1.764189	2.255072	0.000000	0.186248	0.000000	-0.000009	-0.000001	0.000000	0.000000
65.494266	15.766922	19.781313	-1.789188	2.193831	2.351588	0.000000	0.251917	0.000000	-0.000010	-0.000002	0.000000	0.000000
65.940226	17.612088	17.668352	-2.363086	2.524409	2.479237	0.000000	0.320856	0.000000	-0.000011	-0.000002	0.000000	0.000000
66.489286	19.977421	15.304599	-1.919383	1.806093	2.635045	0.000000	0.245852	0.000000	-0.000012	-0.000002	0.000000	0.000000
67.038346	21.777732	13.654796	-1.340105	1.216422	2.748412	0.000000	0.166487	0.000000	-0.000013	-0.000001	0.000000	0.000000
67.587406	22.885857	12.601430	-0.666169	0.713393	2.817327	0.000000	0.084169	0.000000	-0.000013	-0.000001	0.000000	0.000000
68.136466	23.223522	12.069473	0.054821	0.261178	2.840567	0.000000	0.000359	0.000000	-0.000014	-0.000000	0.000000	0.000000
68.435038	23.230863	11.902697	-0.018721	0.265859	2.842891	0.000000	0.007781	0.000000	-0.000014	-0.000000	0.000000	0.000000
68.768372	23.248128	11.735452	-0.033075	0.235875	2.845484	0.000000	0.007781	0.000000	-0.000014	-0.000000	0.000000	0.000000
69.101705	23.274962	11.588197	-0.047429	0.205891	2.848078	0.000000	0.007781	0.000000	-0.000014	-0.000000	0.000000	0.000000
69.436288	23.311521	11.460492	-0.061836	0.175794	2.850682	0.000000	0.007781	0.000000	-0.000014	-0.000000	0.000000	0.000000
69.733611	23.352098	11.363909	-0.135661	0.178744	2.852996	0.000000	0.015237	0.000000	-0.000014	-0.000000	0.000000	0.000000
70.282671	23.100012	11.395198	0.592067	-0.236066	2.838183	0.000000	-0.069113	0.000000	-0.000014	0.000000	0.000000	0.000000
