#ParticleID	Turn	x[m]	xp	y[m]	yp	z[m]	dE[GeV]# s	beta_x	beta_y	alpha_x	alpha_y	D_x	D_y	D_px	D_py	orbit_x	orbit_px	orbit_y	orbit_py
0.300000	11.820229	24.992478	-0.011770	-0.027527	2.618066	0.000000	0.000030	0.000000	-0.000000	0.000001	0.000000	0.000000
0.601250	11.834999	25.012697	-0.037260	-0.039589	2.618075	0.000000	0.000030	0.000000	0.000000	0.000001	0.000000	0.000000
0.898573	11.864635	25.039778	-0.033321	-0.112899	2.618084	0.000000	-0.006390	0.000000	0.000000	0.000001	0.000000	0.000000
1.339533	12.046230	24.861601	-0.380057	0.515427	2.631559	0.000000	0.067567	0.000000	0.000001	0.000001	0.000000	0.000000
1.780493	12.540090	24.137556	-0.744157	1.120301	2.677785	0.000000	0.142293	0.000000	0.000001	0.000001	0.000000	0.000000
2.221453	13.368778	22.900584	-1.142255	1.674203	2.757287	0.000000	0.218640	0.000000	0.000001	0.000001	0.000000	0.000000
2.662413	14.570155	21.206969	-1.592539	2.151929	2.870972	0.000000	0.297477	0.000000	0.000002	0.000001	0.000000	0.000000
3.108373	16.219876	19.108928	-2.119875	2.532877	3.021996	0.000000	0.380191	0.000000	0.000002	0.000001	0.000000	0.000000
3.657433	18.335347	16.752559	-1.710212	1.784098	3.205472	0.000000	0.287153	0.000000	0.000002	0.000001	0.000000	0.000000
4.206493	19.931557	15.144250	-1.179747	1.162396	3.336388	0.000000	0.189021	0.000000	0.000003	0.000001	0.000000	0.000000
4.755553	20.895758	14.169445	-0.565952	0.623490	3.412423	0.000000	0.087537	0.000000	0.000003	0.000001	0.000000	0.000000
5.304613	21.159845	13.758711	0.087820	0.128993	3.432229	0.000000	-0.015500	0.000000	0.000003	0.000000	0.000000	0.000000
5.603185	21.144634	13.666873	0.018410	0.142650	3.430278	0.000000	-0.006532	0.000000	0.000004	0.000000	0.000000	0.000000
5.936519	21.137617	13.580068	0.002640	0.117764	3.428100	0.000000	-0.006532	0.000000	0.000004	0.000000	0.000000	0.000000
6.269852	21.141114	13.509854	-0.013130	0.092878	3.425923	0.000000	-0.006532	0.000000	0.000004	0.000000	0.000000	0.000000
6.604435	21.155196	13.456061	-0.028959	0.067898	3.423737	0.000000	-0.006532	0.000000	0.000004	0.000000	0.000000	0.000000
6.901758	21.176598	13.422286	-0.098353	0.080769	3.421795	0.000000	0.002408	0.000000	0.000004	0.000000	0.000000	0.000000
7.450818	20.923663	13.594292	0.556296	-0.395892	3.394914	0.000000	-0.100177	0.000000	0.000004	0.000000	0.000000	0.000000
7.999878	19.969266	14.302049	1.171652	-0.900752	3.312115	0.000000	-0.200984	0.000000	0.000005	0.000000	0.000000	0.000000
8.548938	18.380821	15.595970	1.704248	-1.469770	3.174864	0.000000	-0.298227	0.000000	0.000005	0.000000	0.000000	0.000000
9.097998	16.270528	17.568218	2.116465	-2.143477	2.985598	0.000000	-0.390179	0.000000	0.000005	-0.000000	0.000000	0.000000
9.543958	14.624072	19.325613	1.588597	-1.780569	2.829901	0.000000	-0.308470	0.000000	0.000005	0.000000	0.000000	0.000000
9.984918	13.426472	20.705977	1.137599	-1.337880	2.711125	0.000000	-0.230757	0.000000	0.000005	0.000000	0.000000	0.000000
10.425878	12.602281	21.667488	0.738575	-0.834317	2.626006	0.000000	-0.155673	0.000000	0.000005	0.000000	0.000000	0.000000
10.866838	12.113845	22.166398	0.373294	-0.292794	2.573574	0.000000	-0.082361	0.000000	0.000005	0.000000	0.000000	0.000000
11.309048	11.938711	22.179487	0.054239	0.207602	2.553212	0.000000	-0.016249	0.000000	0.000005	0.000001	0.000000	0.000000
11.606371	11.913884	22.060195	0.029262	0.193619	2.548380	0.000000	-0.016249	0.000000	0.000005	0.000001	0.000000	0.000000
12.086371	11.905148	21.885156	-0.011062	0.171045	2.540581	0.000000	-0.016249	0.000000	0.000006	0.000001	0.000000	0.000000
12.566371	11.935122	21.731788	-0.051385	0.148471	2.532781	0.000000	-0.016249	0.000000	0.000006	0.000001	0.000000	0.000000
13.046371	12.003807	21.600092	-0.091709	0.125896	2.524981	0.000000	-0.016249	0.000000	0.000006	0.000001	0.000000	0.000000
13.526371	12.111203	21.490067	-0.132032	0.103322	2.517181	0.000000	-0.016249	0.000000	0.000006	0.000001	0.000000	0.000000
14.007621	12.257741	21.401512	-0.172461	0.080689	2.509361	0.000000	-0.016249	0.000000	0.000006	0.000001	0.000000	0.000000
14.304943	12.367720	21.357688	-0.167111	0.014334	2.504530	0.000000	-0.022390	0.000000	0.000007	0.000000	0.000000	0.000000
14.745903	12.673703	21.111275	-0.529422	0.542351	2.510290	0.000000	0.048539	0.000000	0.000007	0.000001	0.000000	0.000000
15.186863	13.308633	20.408337	-0.915921	1.045691	2.547418	0.000000	0.120022	0.000000	0.000007	0.000001	0.000000	0.000000
15.627823	14.301518	19.280857	-1.344265	1.501453	2.616339	0.000000	0.192872	0.000000	0.000008	0.000001	0.000000	0.000000
16.068783	15.697721	17.780136	-1.834026	1.888901	2.717837	0.000000	0.267918	0.000000	0.000008	0.000001	0.000000	0.000000
16.514743	17.584684	15.952950	-2.412335	2.191151	2.854763	0.000000	0.346478	0.000000	0.000009	0.000001	0.000000	0.000000
17.063803	20.008128	13.912673	-1.975342	1.546728	3.021265	0.000000	0.259133	0.000000	0.000009	0.000001	0.000000	0.000000
17.612863	21.871778	12.515763	-1.398820	1.012475	3.138476	0.000000	0.167192	0.000000	0.000010	0.000001	0.000000	0.000000
18.161923	23.043995	11.662720	-0.723493	0.550338	3.204317	0.000000	0.072285	0.000000	0.000010	0.000001	0.000000	0.000000
18.710983	23.441979	11.292785	0.002938	0.127400	3.217618	0.000000	-0.023903	0.000000	0.000011	0.000000	0.000000	0.000000
19.009556	23.480612	11.207179	-0.071086	0.129813	3.212991	0.000000	-0.015497	0.000000	0.000011	0.000000	0.000000	0.000000
19.342889	23.532759	11.130718	-0.085354	0.099569	3.207825	0.000000	-0.015497	0.000000	0.000011	0.000000	0.000000	0.000000
19.676223	23.594417	11.074420	-0.099622	0.069325	3.202660	0.000000	-0.015497	0.000000	0.000011	0.000000	0.000000	0.000000
20.010806	23.666166	11.038051	-0.231198	0.093657	3.197494	0.000000	0.000345	0.000000	0.000011	0.000000	0.000000	0.000000
20.308129	23.807582	10.990437	-0.306632	0.095198	3.197597	0.000000	0.008699	0.000000	0.000011	0.000000	0.000000	0.000000
20.857189	23.733683	11.108209	0.440426	-0.310961	3.176149	0.000000	-0.086709	0.000000	0.000011	-0.000000	0.000000	0.000000
21.406249	22.851723	11.681465	1.156375	-0.739270	3.102662	0.000000	-0.180579	0.000000	0.000011	-0.000000	0.000000	0.000000
21.955309	21.223997	12.751037	1.790644	-1.220235	2.978440	0.000000	-0.271246	0.000000	0.000011	-0.000001	0.000000	0.000000
22.504369	18.965480	14.393109	2.298430	-1.788115	2.805686	0.000000	-0.357102	0.000000	0.000010	-0.000001	0.000000	0.000000
22.950329	17.185614	15.867325	1.706748	-1.503653	2.663729	0.000000	-0.279881	0.000000	0.000010	-0.000001	0.000000	0.000000
23.391289	15.909691	17.042673	1.197739	-1.151632	2.556638	0.000000	-0.206301	0.000000	0.000009	-0.000001	0.000000	0.000000
23.832249	15.056940	17.883186	0.743451	-0.747212	2.481444	0.000000	-0.135072	0.000000	0.000009	-0.000000	0.000000	0.000000
24.273209	14.588398	18.350622	0.323129	-0.308795	2.437290	0.000000	-0.065380	0.000000	0.000009	-0.000000	0.000000	0.000000
24.715418	14.482778	18.423467	-0.047003	0.098426	2.423672	0.000000	-0.002377	0.000000	0.000009	0.000000	0.000000	0.000000
25.012741	14.516845	18.369783	-0.067578	0.082132	2.422965	0.000000	-0.002377	0.000000	0.000009	0.000000	0.000000	0.000000
25.346075	14.569586	18.321117	-0.090645	0.063864	2.422173	0.000000	-0.002377	0.000000	0.000009	0.000000	0.000000	0.000000
25.679408	14.637705	18.284631	-0.113712	0.045596	2.421380	0.000000	-0.002377	0.000000	0.000009	0.000000	0.000000	0.000000
26.013991	14.721245	18.260626	-0.017436	-0.120880	2.420561	0.000000	-0.022014	0.000000	0.000009	0.000000	0.000000	0.000000
26.311314	14.737620	18.337418	-0.001501	-0.182365	2.414015	0.000000	-0.027933	0.000000	0.000009	-0.000000	0.000000	0.000000
26.752274	14.920528	18.299358	-0.414867	0.268349	2.416811	0.000000	0.040625	0.000000	0.000009	0.000000	0.000000	0.000000
27.193234	15.474941	17.867689	-0.847188	0.706854	2.449911	0.000000	0.109646	0.000000	0.000009	0.000000	0.000000	0.000000
27.634194	16.426188	17.062054	-1.318213	1.113198	2.513692	0.000000	0.179915	0.000000	0.000009	0.000001	0.000000	0.000000
28.075154	17.817728	15.919106	-1.849464	1.468892	2.608882	0.000000	0.252234	0.000000	0.000010	0.000001	0.000000	0.000000
28.521114	19.737315	14.473635	-2.470175	1.758665	2.738166	0.000000	0.327869	0.000000	0.000010	0.000001	0.000000	0.000000
29.070174	22.177125	12.863038	-1.947132	1.192020	2.895516	0.000000	0.244450	0.000000	0.000011	0.000001	0.000000	0.000000
29.619234	23.963185	11.824690	-1.286552	0.710280	3.005805	0.000000	0.156696	0.000000	0.000011	0.000000	0.000000	0.000000
30.168294	24.969336	11.284632	-0.535097	0.279132	3.067076	0.000000	0.066162	0.000000	0.000011	0.000000	0.000000	0.000000
30.717354	25.124510	11.204395	0.254154	-0.132134	3.078243	0.000000	-0.025546	0.000000	0.000011	-0.000000	0.000000	0.000000
31.015927	25.015613	11.273859	0.176209	-0.129792	3.073017	0.000000	-0.017503	0.000000	0.000011	-0.000000	0.000000	0.000000
31.349260	24.902721	11.370409	0.162470	-0.159857	3.067183	0.000000	-0.017503	0.000000	0.000011	-0.000000	0.000000	0.000000
31.682593	24.798987	11.487002	0.148731	-0.189922	3.061348	0.000000	-0.017503	0.000000	0.000011	-0.000000	0.000000	0.000000
32.017177	24.704075	11.624188	0.134941	-0.220100	3.055492	0.000000	-0.017503	0.000000	0.000011	-0.000000	0.000000	0.000000
32.314499	24.627477	11.763043	0.058345	-0.216185	3.050288	0.000000	-0.009534	0.000000	0.000011	-0.000000	0.000000	0.000000
32.863559	24.141482	12.239697	0.821553	-0.657068	3.020165	0.000000	-0.100029	0.000000	0.000011	-0.000001	0.000000	0.000000
33.412619	22.844455	13.223200	1.526731	-1.144752	2.940770	0.000000	-0.188749	0.000000	0.000010	-0.000001	0.000000	0.000000
33.961679	20.828010	14.783602	2.124068	-1.713975	2.813512	0.000000	-0.274122	0.000000	0.000010	-0.000001	0.000000	0.000000
34.510739	18.234579	17.032048	2.571371	-2.405280	2.640646	0.000000	-0.354632	0.000000	0.000009	-0.000002	0.000000	0.000000
34.956699	16.218125	19.043177	1.966432	-2.085550	2.498840	0.000000	-0.281689	0.000000	0.000009	-0.000001	0.000000	0.000000
35.397659	14.714522	20.706292	1.456343	-1.671676	2.390011	0.000000	-0.212383	0.000000	0.000008	-0.000001	0.000000	0.000000
35.838619	13.629848	21.969342	1.012790	-1.181742	2.311181	0.000000	-0.145496	0.000000	0.000008	-0.000001	0.000000	0.000000
36.279579	12.914546	22.774858	0.615509	-0.638040	2.261452	0.000000	-0.080266	0.000000	0.000007	-0.000001	0.000000	0.000000
36.721789	12.535245	23.086495	0.276981	-0.121972	2.240232	0.000000	-0.021444	0.000000	0.000007	-0.000001	0.000000	0.000000
37.019112	12.378133	23.162911	0.251442	-0.135042	2.233857	0.000000	-0.021444	0.000000	0.000007	-0.000001	0.000000	0.000000
37.352445	12.220049	23.257824	0.222811	-0.149696	2.226709	0.000000	-0.021444	0.000000	0.000007	-0.000001	0.000000	0.000000
37.685779	12.081052	23.362506	0.194179	-0.164349	2.219561	0.000000	-0.021444	0.000000	0.000006	-0.000001	0.000000	0.000000
38.020362	11.960730	23.477403	0.165440	-0.179057	2.212387	0.000000	-0.021444	0.000000	0.000006	-0.000001	0.000000	0.000000
38.317684	11.869945	23.587765	0.169008	-0.249968	2.206011	0.000000	-0.026853	0.000000	0.000006	-0.000001	0.000000	0.000000
38.758644	11.872250	23.546961	-0.174255	0.342151	2.208099	0.000000	0.036334	0.000000	0.000006	-0.000000	0.000000	0.000000
39.199604	12.179638	22.988851	-0.525479	0.918702	2.238115	0.000000	0.099934	0.000000	0.000006	-0.000000	0.000000	0.000000
39.640564	12.806154	21.938830	-0.900711	1.453453	2.296400	0.000000	0.164673	0.000000	0.000006	-0.000000	0.000000	0.000000
40.081524	13.780421	20.444672	-1.317093	1.922073	2.383619	0.000000	0.231287	0.000000	0.000006	0.000000	0.000000	0.000000
40.527484	15.164523	18.551791	-1.797476	2.304522	2.502235	0.000000	0.300941	0.000000	0.000006	0.000000	0.000000	0.000000
41.076544	16.930883	16.424707	-1.400542	1.592392	2.646937	0.000000	0.225372	0.000000	0.000006	0.000000	0.000000	0.000000
41.625604	18.204126	15.013128	-0.904681	0.993684	2.748986	0.000000	0.145805	0.000000	0.000006	-0.000000	0.000000	0.000000
42.174664	18.894317	14.216511	-0.344918	0.465754	2.806573	0.000000	0.063652	0.000000	0.000006	-0.000000	0.000000	0.000000
42.723724	18.952703	13.978115	0.239209	-0.029001	2.818677	0.000000	-0.019630	0.000000	0.000005	-0.000001	0.000000	0.000000
43.022297	18.844302	13.980003	0.173371	-0.013842	2.815015	0.000000	-0.012266	0.000000	0.000005	-0.000001	0.000000	0.000000
43.502297	18.690460	14.009775	0.147133	-0.048183	2.809127	0.000000	-0.012266	0.000000	0.000005	-0.000001	0.000000	0.000000
43.982297	18.561806	14.072514	0.120896	-0.082524	2.803240	0.000000	-0.012266	0.000000	0.000005	-0.000001	0.000000	0.000000
44.462297	18.458340	14.168222	0.094658	-0.116866	2.797352	0.000000	-0.012266	0.000000	0.000005	-0.000001	0.000000	0.000000
44.942297	18.380062	14.296897	0.068421	-0.151207	2.791465	0.000000	-0.012266	0.000000	0.000004	-0.000001	0.000000	0.000000
45.423547	18.327093	14.458825	-0.048688	-0.114000	2.785580	0.000000	0.001536	0.000000	0.000004	-0.000000	0.000000	0.000000
45.720870	18.360880	14.532807	-0.112921	-0.096860	2.786036	0.000000	0.008815	0.000000	0.000004	-0.000000	0.000000	0.000000
46.269930	18.175716	14.920278	0.448163	-0.613002	2.768302	0.000000	-0.073319	0.000000	0.000004	-0.000001	0.000000	0.000000
46.818990	17.388230	15.895040	0.977590	-1.172807	2.705763	0.000000	-0.154151	0.000000	0.000003	-0.000001	0.000000	0.000000
47.368050	16.054047	17.526525	1.437966	-1.816148	2.599529	0.000000	-0.232250	0.000000	0.000003	-0.000001	0.000000	0.000000
47.917110	14.267406	19.930940	1.796771	-2.588849	2.451483	0.000000	-0.306229	0.000000	0.000002	-0.000001	0.000000	0.000000
48.363070	12.877008	22.068711	1.332040	-2.184636	2.330210	0.000000	-0.237926	0.000000	0.000002	-0.000001	0.000000	0.000000
48.804030	11.882458	23.780387	0.931936	-1.682296	2.239755	0.000000	-0.172730	0.000000	0.000002	-0.000001	0.000000	0.000000
49.244990	11.220730	25.013466	0.574409	-1.103413	2.177588	0.000000	-0.109502	0.000000	0.000001	-0.000001	0.000000	0.000000
49.685950	10.861592	25.711843	0.243125	-0.474326	2.143001	0.000000	-0.047521	0.000000	0.000001	-0.000001	0.000000	0.000000
50.128160	10.788763	25.843462	-0.050710	0.112918	2.135611	0.000000	0.008682	0.000000	0.000001	-0.000001	0.000000	0.000000
50.425482	10.827133	25.779780	-0.078340	0.101267	2.138192	0.000000	0.008682	0.000000	0.000000	-0.000001	0.000000	0.000000
50.758816	10.889684	25.716623	-0.109315	0.088204	2.141087	0.000000	0.008682	0.000000	0.000000	-0.000001	0.000000	0.000000
51.092149	10.972886	25.662174	-0.140291	0.075141	2.143981	0.000000	0.008682	0.000000	-0.000000	-0.000001	0.000000	0.000000
51.426732	11.076943	25.616799	-0.081520	-0.145786	2.146864	0.000000	-0.008735	0.000000	-0.000000	-0.000001	0.000000	0.000000
51.724055	11.133452	25.707014	-0.081237	-0.220681	2.144267	0.000000	-0.013993	0.000000	-0.000001	-0.000001	0.000000	0.000000
52.165015	11.350451	25.615648	-0.412738	0.427090	2.151686	0.000000	0.047671	0.000000	-0.000001	-0.000001	0.000000	0.000000
52.605975	11.866987	24.959419	-0.763095	1.055429	2.186389	0.000000	0.109877	0.000000	-0.000001	-0.000001	0.000000	0.000000
53.046935	12.706657	23.768185	-1.148316	1.635747	2.248773	0.000000	0.173335	0.000000	-0.000001	-0.000001	0.000000	0.000000
53.487895	13.907824	22.096145	-1.586000	2.141640	2.339548	0.000000	0.238768	0.000000	-0.000002	-0.000001	0.000000	0.000000
53.933855	15.545955	19.994376	-2.100376	2.551426	2.461251	0.000000	0.307318	0.000000	-0.000002	-0.000001	0.000000	0.000000
54.482915	17.654981	17.629383	-1.718043	1.781349	2.609808	0.000000	0.233014	0.000000	-0.000003	-0.000001	0.000000	0.000000
55.031975	19.274630	16.035808	-1.214355	1.138153	2.716371	0.000000	0.154578	0.000000	-0.000003	-0.000001	0.000000	0.000000
55.581035	20.290499	15.100144	-0.624891	0.576025	2.779050	0.000000	0.073399	0.000000	-0.000003	-0.000001	0.000000	0.000000
56.130095	20.630833	14.755746	0.008712	0.054927	2.796733	0.000000	-0.009082	0.000000	-0.000004	-0.000000	0.000000	0.000000
56.428668	20.662151	14.706018	-0.059696	0.073071	2.796203	0.000000	-0.001774	0.000000	-0.000004	-0.000000	0.000000	0.000000
56.762001	20.707345	14.664900	-0.075886	0.050284	2.795612	0.000000	-0.001774	0.000000	-0.000004	-0.000000	0.000000	0.000000
57.095334	20.763332	14.638973	-0.092076	0.027496	2.795021	0.000000	-0.001774	0.000000	-0.000004	-0.000000	0.000000	0.000000
57.429918	20.830384	14.628227	-0.108327	0.004623	2.794428	0.000000	-0.001774	0.000000	-0.000004	-0.000000	0.000000	0.000000
57.727240	20.899093	14.631521	-0.177375	0.022528	2.793900	0.000000	0.005526	0.000000	-0.000005	-0.000001	0.000000	0.000000
58.276300	20.737311	14.887768	0.470284	-0.491985	2.774296	0.000000	-0.076832	0.000000	-0.000005	-0.000000	0.000000	0.000000
58.825360	19.878435	15.724824	1.084724	-1.041540	2.709781	0.000000	-0.157826	0.000000	-0.000005	-0.000000	0.000000	0.000000
59.374420	18.383130	17.202311	1.622545	-1.665283	2.601498	0.000000	-0.236022	0.000000	-0.000005	-0.000000	0.000000	0.000000
59.923480	16.357017	19.425467	2.045758	-2.407639	2.451369	0.000000	-0.310031	0.000000	-0.000005	0.000000	0.000000	0.000000
60.369440	14.771168	21.401451	1.522870	-2.004515	2.328397	0.000000	-0.241753	0.000000	-0.000005	-0.000000	0.000000	0.000000
60.810400	13.630484	22.957822	1.073764	-1.511560	2.236240	0.000000	-0.176626	0.000000	-0.000005	-0.000000	0.000000	0.000000
61.251360	12.862829	24.047342	0.673715	-0.949830	2.172331	0.000000	-0.113511	0.000000	-0.000005	-0.000000	0.000000	0.000000
61.692320	12.433129	24.620440	0.304446	-0.344883	2.135943	0.000000	-0.051689	0.000000	-0.000005	-0.000000	0.000000	0.000000
62.134530	12.321806	24.650501	-0.020797	0.215248	2.126666	0.000000	0.004330	0.000000	-0.000005	-0.000001	0.000000	0.000000
62.431853	12.341350	24.526257	-0.044937	0.202627	2.127953	0.000000	0.004330	0.000000	-0.000006	-0.000001	0.000000	0.000000
62.765186	12.380329	24.395888	-0.072001	0.188478	2.129396	0.000000	0.004330	0.000000	-0.000006	-0.000001	0.000000	0.000000
63.098520	12.437351	24.274952	-0.099065	0.174330	2.130840	0.000000	0.004330	0.000000	-0.000006	-0.000001	0.000000	0.000000
63.433103	12.512731	24.163049	-0.126231	0.160128	2.132289	0.000000	0.004330	0.000000	-0.000006	-0.000001	0.000000	0.000000
63.730426	12.594971	24.071582	-0.119482	0.088473	2.133576	0.000000	-0.000903	0.000000	-0.000006	-0.000001	0.000000	0.000000
64.171386	12.860721	23.728449	-0.485466	0.686715	2.146717	0.000000	0.060559	0.000000	-0.000006	-0.000001	0.000000	0.000000
64.612346	13.457762	22.869530	-0.873629	1.253712	2.187086	0.000000	0.122711	0.000000	-0.000007	-0.000001	0.000000	0.000000
65.053306	14.413373	21.533904	-1.301706	1.763666	2.255144	0.000000	0.186260	0.000000	-0.000007	-0.000001	0.000000	0.000000
65.494266	15.771211	19.782342	-1.789254	2.193375	2.351664	0.000000	0.251930	0.000000	-0.000008	-0.000001	0.000000	0.000000
65.940226	17.616475	17.669749	-2.363240	2.524042	2.479320	0.000000	0.320872	0.000000	-0.000008	-0.000001	0.000000	0.000000
66.489286	19.981883	15.306387	-1.919364	1.805744	2.635136	0.000000	0.245865	0.000000	-0.000009	-0.000001	0.000000	0.000000
67.038346	21.782078	13.656969	-1.339913	1.216066	2.748509	0.000000	0.166497	0.000000	-0.000010	-0.000001	0.000000	0.000000
67.587406	22.889902	12.604009	-0.665819	0.713005	2.817429	0.000000	0.084176	0.000000	-0.000010	-0.000001	0.000000	0.000000
68.136466	23.227106	12.072507	0.055307	0.260730	2.840671	0.000000	0.000362	0.000000	-0.000010	-0.000000	0.000000	0.000000
68.435038	23.234161	11.905991	-0.018242	0.265431	2.842996	0.000000	0.007785	0.000000	-0.000010	-0.000000	0.000000	0.000000
68.768372	23.251106	11.739027	-0.032593	0.235462	2.845591	0.000000	0.007785	0.000000	-0.000010	-0.000000	0.000000	0.000000
69.101705	23.277618	11.592043	-0.046945	0.205492	2.848186	0.000000	0.007785	0.000000	-0.000010	-0.000000	0.000000	0.000000
69.436288	23.313852	11.464599	-0.061350	0.175410	2.850791	0.000000	0.007785	0.000000	-0.000010	-0.000000	0.000000	0.000000
69.733611	23.354139	11.368241	-0.135176	0.178384	2.853105	0.000000	0.015240	0.000000	-0.000010	-0.000000	0.000000	0.000000
70.282671	23.101488	11.399993	0.592605	-0.236555	2.838294	0.000000	-0.069113	0.000000	-0.000011	0.000000	0.000000	0.000000
