#ParticleID	Turn	x[m]	xp	y[m]	yp	z[m]	dE[GeV]# s	beta_x	beta_y	alpha_x	alpha_y	D_x	D_y	D_px	D_py	orbit_x	orbit_px	orbit_y	orbit_py
0.300000	11.834649	24.938850	-0.013746	-0.027788	2.618352	0.000000	-0.000079	0.000000	-0.000001	0.000000	0.000000	0.000000
0.601250	11.850600	24.959234	-0.039206	-0.039877	2.618328	0.000000	-0.000079	0.000000	-0.000001	0.000000	0.000000	0.000000
0.898573	11.881385	24.986494	-0.035196	-0.113083	2.618305	0.000000	-0.006500	0.000000	-0.000001	0.000000	0.000000	0.000000
1.339533	12.064816	24.809101	-0.382363	0.513839	2.631733	0.000000	0.067462	0.000000	-0.000001	0.000000	0.000000	0.000000
1.780493	12.560937	24.087050	-0.746998	1.117382	2.677913	0.000000	0.142192	0.000000	-0.000001	0.000000	0.000000	0.000000
2.221453	13.392413	22.853193	-1.145761	1.670085	2.757372	0.000000	0.218541	0.000000	-0.000001	0.000000	0.000000	0.000000
2.662413	14.597234	21.163670	-1.596871	2.146801	2.871014	0.000000	0.297380	0.000000	-0.000001	0.000000	0.000000	0.000000
3.108373	16.251263	19.070572	-2.125240	2.526968	3.021995	0.000000	0.380095	0.000000	-0.000001	0.000000	0.000000	0.000000
3.657433	18.372224	16.719846	-1.714789	1.779667	3.205418	0.000000	0.287058	0.000000	-0.000001	0.000000	0.000000	0.000000
4.206493	19.972876	15.115740	-1.183213	1.159129	3.336283	0.000000	0.188929	0.000000	-0.000001	0.000000	0.000000	0.000000
4.755553	20.940157	14.143995	-0.568062	0.621152	3.412269	0.000000	0.087449	0.000000	-0.000001	0.000000	0.000000	0.000000
5.304613	21.205743	13.735396	0.087215	0.127419	3.432027	0.000000	-0.015583	0.000000	-0.000000	0.000000	0.000000	0.000000
5.603185	21.190958	13.644542	0.017714	0.140990	3.430052	0.000000	-0.006615	0.000000	-0.000000	0.000000	0.000000	0.000000
5.936519	21.184394	13.558854	0.001979	0.116074	3.427847	0.000000	-0.006615	0.000000	-0.000000	0.000000	0.000000	0.000000
6.269852	21.188320	13.489776	-0.013756	0.091159	3.425642	0.000000	-0.006615	0.000000	-0.000000	0.000000	0.000000	0.000000
6.604435	21.202809	13.437143	-0.029550	0.066150	3.423428	0.000000	-0.006615	0.000000	-0.000000	0.000000	0.000000	0.000000
6.901758	21.224554	13.404415	-0.099041	0.078950	3.421461	0.000000	0.002324	0.000000	-0.000000	0.000000	0.000000	0.000000
7.450818	20.971488	13.578148	0.557221	-0.397237	3.394538	0.000000	-0.100249	0.000000	-0.000000	0.000000	0.000000	0.000000
7.999878	20.015215	14.287166	1.174124	-0.901718	3.311703	0.000000	-0.201043	0.000000	-0.000000	0.000000	0.000000	0.000000
8.548938	18.423282	15.581972	1.708092	-1.470426	3.174423	0.000000	-0.298272	0.000000	-0.000000	0.000000	0.000000	0.000000
9.097998	16.308134	17.554792	2.121410	-2.143869	2.985136	0.000000	-0.390210	0.000000	0.000000	0.000000	0.000000	0.000000
9.543958	14.657771	19.312756	1.592445	-1.781450	2.829422	0.000000	-0.308513	0.000000	0.000000	0.000000	0.000000	0.000000
9.984918	13.457192	20.694097	1.140534	-1.339205	2.710625	0.000000	-0.230813	0.000000	0.000000	0.000000	0.000000	0.000000
10.425878	12.630765	21.656951	0.740731	-0.836026	2.625478	0.000000	-0.155742	0.000000	0.000000	0.000000	0.000000	0.000000
10.866838	12.140733	22.157509	0.374769	-0.294810	2.573013	0.000000	-0.082444	0.000000	0.000000	0.000000	0.000000	0.000000
11.309048	11.964571	22.172483	0.055166	0.205388	2.552611	0.000000	-0.016346	0.000000	0.000000	0.000000	0.000000	0.000000
11.606371	11.939177	22.054505	0.030240	0.191412	2.547751	0.000000	-0.016346	0.000000	0.000000	0.000000	0.000000	0.000000
12.086371	11.929462	21.881579	-0.010000	0.168851	2.539905	0.000000	-0.016346	0.000000	0.000001	0.000000	0.000000	0.000000
12.566371	11.958378	21.730312	-0.050241	0.146289	2.532059	0.000000	-0.016346	0.000000	0.000001	0.000000	0.000000	0.000000
13.046371	12.025925	21.600704	-0.090481	0.123727	2.524212	0.000000	-0.016346	0.000000	0.000001	0.000000	0.000000	0.000000
13.526371	12.132102	21.492756	-0.130722	0.101166	2.516366	0.000000	-0.016346	0.000000	0.000001	0.000000	0.000000	0.000000
14.007621	12.277338	21.406270	-0.171067	0.078545	2.508500	0.000000	-0.016346	0.000000	0.000001	0.000000	0.000000	0.000000
14.304943	12.386473	21.363718	-0.165618	0.012180	2.503640	0.000000	-0.022485	0.000000	0.000001	0.000000	0.000000	0.000000
14.745903	12.691311	21.119118	-0.528309	0.540408	2.509353	0.000000	0.048421	0.000000	0.000001	0.000000	0.000000	0.000000
15.186863	13.325407	20.417768	-0.915136	1.044048	2.546424	0.000000	0.119879	0.000000	0.000001	0.000000	0.000000	0.000000
15.627823	14.317731	19.291577	-1.343774	1.500184	2.615276	0.000000	0.192702	0.000000	0.000001	0.000000	0.000000	0.000000
16.068783	15.713621	17.791789	-1.833805	1.888063	2.716693	0.000000	0.267719	0.000000	0.000001	0.000000	0.000000	0.000000
16.514743	17.600504	15.965141	-2.412375	2.190787	2.853524	0.000000	0.346249	0.000000	0.000002	0.000000	0.000000	0.000000
17.063803	20.023611	13.925371	-1.974691	1.546163	3.019913	0.000000	0.258946	0.000000	0.000002	0.000000	0.000000	0.000000
17.612863	21.886186	12.529209	-1.397526	1.011669	3.137033	0.000000	0.167050	0.000000	0.000002	0.000000	0.000000	0.000000
18.161923	23.056668	11.677209	-0.721646	0.549233	3.202809	0.000000	0.072191	0.000000	0.000002	0.000000	0.000000	0.000000
18.710983	23.452378	11.308686	0.005207	0.125919	3.216073	0.000000	-0.023948	0.000000	0.000002	0.000000	0.000000	0.000000
19.009556	23.489672	11.223923	-0.068839	0.128425	3.211431	0.000000	-0.015545	0.000000	0.000002	0.000000	0.000000	0.000000
19.342889	23.540317	11.148369	-0.083097	0.098237	3.206249	0.000000	-0.015545	0.000000	0.000002	0.000000	0.000000	0.000000
19.676223	23.600468	11.092941	-0.097355	0.068049	3.201068	0.000000	-0.015545	0.000000	0.000002	0.000000	0.000000	0.000000
20.010806	23.670696	11.057406	-0.228944	0.092533	3.195886	0.000000	0.000289	0.000000	0.000002	0.000000	0.000000	0.000000
20.308129	23.810767	11.010445	-0.304375	0.094181	3.195972	0.000000	0.008639	0.000000	0.000002	0.000000	0.000000	0.000000
20.857189	23.734344	11.129647	0.442740	-0.312565	3.174506	0.000000	-0.086716	0.000000	0.000002	0.000000	0.000000	0.000000
21.406249	22.849887	11.705036	1.158582	-0.741574	3.101030	0.000000	-0.180533	0.000000	0.000002	-0.000000	0.000000	0.000000
21.955309	21.219868	12.777596	1.792588	-1.223404	2.976847	0.000000	-0.271148	0.000000	0.000002	-0.000000	0.000000	0.000000
22.504369	18.959425	14.423723	2.299974	-1.792374	2.804161	0.000000	-0.356953	0.000000	0.000002	-0.000000	0.000000	0.000000
22.950329	17.178196	15.901442	1.708271	-1.507217	2.662262	0.000000	-0.279770	0.000000	0.000002	-0.000000	0.000000	0.000000
23.391289	15.900914	17.079565	1.199311	-1.154340	2.555211	0.000000	-0.206228	0.000000	0.000002	-0.000000	0.000000	0.000000
23.832249	15.046727	17.922043	0.745145	-0.748942	2.480040	0.000000	-0.135035	0.000000	0.000002	-0.000000	0.000000	0.000000
24.273209	14.576610	18.390542	0.325022	-0.309468	2.435895	0.000000	-0.065380	0.000000	0.000002	0.000000	0.000000	0.000000
24.715418	14.469196	18.463500	-0.044856	0.098741	2.422268	0.000000	-0.002409	0.000000	0.000002	0.000000	0.000000	0.000000
25.012741	14.501991	18.409618	-0.065446	0.082481	2.421552	0.000000	-0.002409	0.000000	0.000002	0.000000	0.000000	0.000000
25.346075	14.553317	18.360708	-0.088530	0.064251	2.420749	0.000000	-0.002409	0.000000	0.000002	0.000000	0.000000	0.000000
25.679408	14.620032	18.323950	-0.111614	0.046022	2.419945	0.000000	-0.002409	0.000000	0.000002	0.000000	0.000000	0.000000
26.013991	14.702174	18.299647	-0.015511	-0.120732	2.419115	0.000000	-0.022035	0.000000	0.000002	0.000000	0.000000	0.000000
26.311314	14.717412	18.376341	0.000352	-0.182280	2.412563	0.000000	-0.027951	0.000000	0.000002	0.000000	0.000000	0.000000
26.752274	14.898460	18.337740	-0.412487	0.269486	2.415342	0.000000	0.040569	0.000000	0.000002	0.000000	0.000000	0.000000
27.193234	15.450502	17.904623	-0.844172	0.708990	2.448410	0.000000	0.109552	0.000000	0.000002	0.000000	0.000000	0.000000
27.634194	16.398760	17.096696	-1.314425	1.116236	2.512141	0.000000	0.179782	0.000000	0.000003	0.000000	0.000000	0.000000
28.075154	17.786556	15.950721	-1.844730	1.472694	2.607263	0.000000	0.252060	0.000000	0.000003	0.000000	0.000000	0.000000
28.521114	19.701415	14.501578	-2.464268	1.763060	2.736461	0.000000	0.327652	0.000000	0.000003	0.000000	0.000000	0.000000
29.070174	22.135201	12.886754	-1.942134	1.195370	2.893708	0.000000	0.244290	0.000000	0.000003	0.000000	0.000000	0.000000
29.619234	23.916438	11.845190	-1.282818	0.712823	3.003925	0.000000	0.156595	0.000000	0.000003	0.000000	0.000000	0.000000
30.168294	24.919306	11.302696	-0.532889	0.281050	3.065158	0.000000	0.066123	0.000000	0.000003	0.000000	0.000000	0.000000
30.717354	25.072970	11.220632	0.254680	-0.130706	3.076321	0.000000	-0.025522	0.000000	0.000003	-0.000000	0.000000	0.000000
31.015927	24.963690	11.289203	0.176836	-0.128272	3.071100	0.000000	-0.017484	0.000000	0.000003	0.000000	0.000000	0.000000
31.349260	24.850389	11.384721	0.163066	-0.158284	3.065272	0.000000	-0.017484	0.000000	0.000003	0.000000	0.000000	0.000000
31.682593	24.746269	11.500248	0.149296	-0.188297	3.059444	0.000000	-0.017484	0.000000	0.000003	0.000000	0.000000	0.000000
32.017177	24.650989	11.636330	0.135474	-0.218422	3.053594	0.000000	-0.017484	0.000000	0.000003	0.000000	0.000000	0.000000
32.314499	24.574082	11.774173	0.058985	-0.214429	3.048395	0.000000	-0.009520	0.000000	0.000003	0.000000	0.000000	0.000000
32.863559	24.088364	12.249030	0.820414	-0.655530	3.018297	0.000000	-0.099953	0.000000	0.000003	-0.000000	0.000000	0.000000
33.412619	22.793534	13.230913	1.523893	-1.143323	2.938960	0.000000	-0.188614	0.000000	0.000003	-0.000000	0.000000	0.000000
33.961679	20.781053	14.789758	2.119731	-1.712553	2.811791	0.000000	-0.273929	0.000000	0.000003	-0.000000	0.000000	0.000000
34.510739	18.193072	17.036600	2.565842	-2.403763	2.639046	0.000000	-0.354386	0.000000	0.000003	-0.000000	0.000000	0.000000
34.956699	16.180985	19.046228	1.962134	-2.083715	2.497339	0.000000	-0.281484	0.000000	0.000003	-0.000000	0.000000	0.000000
35.397659	14.680708	20.707615	1.453070	-1.669608	2.388592	0.000000	-0.212215	0.000000	0.000003	-0.000000	0.000000	0.000000
35.838619	13.598524	21.968773	1.010393	-1.179536	2.309828	0.000000	-0.145364	0.000000	0.000002	-0.000000	0.000000	0.000000
36.279579	12.884992	22.772320	0.613878	-0.635796	2.260151	0.000000	-0.080168	0.000000	0.000002	-0.000000	0.000000	0.000000
36.721789	12.506823	23.081994	0.275973	-0.119784	2.238966	0.000000	-0.021376	0.000000	0.000002	-0.000000	0.000000	0.000000
37.019112	12.350323	23.157108	0.250390	-0.132850	2.232611	0.000000	-0.021376	0.000000	0.000002	-0.000000	0.000000	0.000000
37.352445	12.192957	23.250558	0.221708	-0.147499	2.225486	0.000000	-0.021376	0.000000	0.000002	-0.000000	0.000000	0.000000
37.685779	12.054713	23.353773	0.193026	-0.162147	2.218361	0.000000	-0.021376	0.000000	0.000002	-0.000000	0.000000	0.000000
38.020362	11.935179	23.467196	0.164236	-0.176851	2.211209	0.000000	-0.021376	0.000000	0.000002	-0.000000	0.000000	0.000000
38.317684	11.845123	23.576244	0.167700	-0.247731	2.204853	0.000000	-0.026782	0.000000	0.000002	-0.000000	0.000000	0.000000
38.758644	11.848335	23.533609	-0.175012	0.344052	2.206966	0.000000	0.036375	0.000000	0.000002	-0.000000	0.000000	0.000000
39.199604	12.156162	22.974003	-0.525719	0.920181	2.236994	0.000000	0.099946	0.000000	0.000002	0.000000	0.000000	0.000000
39.640564	12.782666	21.922890	-0.900445	1.454442	2.295278	0.000000	0.164656	0.000000	0.000002	0.000000	0.000000	0.000000
40.081524	13.756472	20.428093	-1.316310	1.922528	2.382482	0.000000	0.231241	0.000000	0.000002	0.000000	0.000000	0.000000
40.527484	15.139629	18.535057	-1.796135	2.304417	2.501072	0.000000	0.300865	0.000000	0.000002	0.000000	0.000000	0.000000
41.076544	16.905015	16.407878	-1.400121	1.592673	2.645742	0.000000	0.225334	0.000000	0.000002	0.000000	0.000000	0.000000
41.625604	18.178317	14.995771	-0.905209	0.994371	2.747781	0.000000	0.145806	0.000000	0.000003	0.000000	0.000000	0.000000
42.174664	18.869594	14.198156	-0.346357	0.466896	2.805379	0.000000	0.063692	0.000000	0.000003	-0.000000	0.000000	0.000000
42.723724	18.930019	13.958220	0.236959	-0.027323	2.817515	0.000000	-0.019552	0.000000	0.000002	-0.000000	0.000000	0.000000
43.022297	18.822929	13.959146	0.171172	-0.012246	2.813875	0.000000	-0.012190	0.000000	0.000002	-0.000000	0.000000	0.000000
43.502297	18.671203	13.987409	0.144924	-0.046637	2.808024	0.000000	-0.012190	0.000000	0.000002	-0.000000	0.000000	0.000000
43.982297	18.544674	14.048689	0.118676	-0.081028	2.802173	0.000000	-0.012190	0.000000	0.000002	-0.000000	0.000000	0.000000
44.462297	18.443344	14.142984	0.092428	-0.115419	2.796322	0.000000	-0.012190	0.000000	0.000002	-0.000000	0.000000	0.000000
44.942297	18.367212	14.270294	0.066180	-0.149811	2.790470	0.000000	-0.012190	0.000000	0.000002	-0.000000	0.000000	0.000000
45.423547	18.316405	14.430902	-0.050886	-0.112792	2.784621	0.000000	0.001606	0.000000	0.000002	-0.000000	0.000000	0.000000
45.720870	18.351502	14.504177	-0.115108	-0.095761	2.785099	0.000000	0.008883	0.000000	0.000002	-0.000000	0.000000	0.000000
46.269930	18.168894	14.889953	0.445723	-0.610998	2.767410	0.000000	-0.073220	0.000000	0.000002	-0.000000	0.000000	0.000000
46.818990	17.384148	15.861955	0.975070	-1.169754	2.704932	0.000000	-0.154025	0.000000	0.000002	-0.000000	0.000000	0.000000
47.368050	16.052695	17.489417	1.435543	-1.811830	2.598774	0.000000	-0.232098	0.000000	0.000002	-0.000000	0.000000	0.000000
47.917110	14.268582	19.888260	1.794617	-2.582958	2.450817	0.000000	-0.306054	0.000000	0.000002	-0.000000	0.000000	0.000000
48.363070	12.880020	22.021171	1.330061	-2.179675	2.329619	0.000000	-0.237768	0.000000	0.000002	-0.000000	0.000000	0.000000
48.804030	11.887173	23.728964	0.930037	-1.678486	2.239230	0.000000	-0.172586	0.000000	0.000001	-0.000000	0.000000	0.000000
49.244990	11.227117	24.959257	0.572504	-1.100928	2.177123	0.000000	-0.109371	0.000000	0.000001	-0.000000	0.000000	0.000000
49.685950	10.869694	25.656070	0.241127	-0.473278	2.142591	0.000000	-0.047401	0.000000	0.000001	-0.000000	0.000000	0.000000
50.128160	10.798708	25.787419	-0.052869	0.112618	2.135252	0.000000	0.008793	0.000000	0.000001	-0.000000	0.000000	0.000000
50.425482	10.838355	25.723923	-0.080479	0.100942	2.137866	0.000000	0.008793	0.000000	0.000001	-0.000000	0.000000	0.000000
50.758816	10.902326	25.660992	-0.111433	0.087852	2.140797	0.000000	0.008793	0.000000	0.000001	-0.000000	0.000000	0.000000
51.092149	10.986932	25.606787	-0.142387	0.074762	2.143728	0.000000	0.008793	0.000000	0.000001	-0.000000	0.000000	0.000000
51.426732	11.092384	25.561674	-0.083469	-0.145746	2.146649	0.000000	-0.008622	0.000000	0.000001	-0.000000	0.000000	0.000000
51.724055	11.150043	25.651873	-0.083117	-0.220531	2.144085	0.000000	-0.013880	0.000000	0.000001	-0.000000	0.000000	0.000000
52.165015	11.368882	25.561019	-0.415044	0.425783	2.151552	0.000000	0.047780	0.000000	0.000001	-0.000000	0.000000	0.000000
52.605975	11.887678	24.906566	-0.765934	1.052724	2.186303	0.000000	0.109984	0.000000	0.000001	-0.000000	0.000000	0.000000
53.046935	12.730133	23.718291	-1.151817	1.631767	2.248733	0.000000	0.173440	0.000000	0.000001	-0.000000	0.000000	0.000000
53.487895	13.934737	22.050260	-1.590323	2.136566	2.339553	0.000000	0.238872	0.000000	0.000001	-0.000000	0.000000	0.000000
53.933855	15.577167	19.953423	-2.105727	2.545486	2.461303	0.000000	0.307423	0.000000	0.000001	-0.000000	0.000000	0.000000
54.482915	17.691672	17.594074	-1.722612	1.776948	2.609916	0.000000	0.233117	0.000000	0.000001	-0.000000	0.000000	0.000000
55.031975	19.315760	16.004634	-1.217820	1.134978	2.716534	0.000000	0.154676	0.000000	0.000001	-0.000000	0.000000	0.000000
55.581035	20.334712	15.071891	-0.627007	0.573850	2.779265	0.000000	0.073491	0.000000	0.000000	-0.000000	0.000000	0.000000
56.130095	20.676556	14.729408	0.008094	0.053596	2.796996	0.000000	-0.008998	0.000000	0.000000	-0.000000	0.000000	0.000000
56.428668	20.708304	14.680526	-0.060400	0.071638	2.796492	0.000000	-0.001690	0.000000	0.000000	-0.000000	0.000000	0.000000
56.762001	20.753956	14.640374	-0.076556	0.048816	2.795929	0.000000	-0.001690	0.000000	0.000000	-0.000000	0.000000	0.000000
57.095334	20.810378	14.615438	-0.092711	0.025994	2.795366	0.000000	-0.001690	0.000000	0.000000	-0.000000	0.000000	0.000000
57.429918	20.877842	14.605708	-0.108927	0.003086	2.794800	0.000000	-0.001690	0.000000	0.000000	-0.000000	0.000000	0.000000
57.727240	20.946900	14.609926	-0.178067	0.020902	2.794298	0.000000	0.005611	0.000000	0.000000	-0.000000	0.000000	0.000000
58.276300	20.784994	14.867625	0.471199	-0.493018	2.774737	0.000000	-0.076760	0.000000	0.000000	-0.000000	0.000000	0.000000
58.825360	19.924253	15.705525	1.087183	-1.042054	2.710257	0.000000	-0.157770	0.000000	-0.000000	-0.000000	0.000000	0.000000
59.374420	18.425476	17.183310	1.626373	-1.665314	2.602001	0.000000	-0.235981	0.000000	-0.000000	-0.000000	0.000000	0.000000
59.923480	16.394528	19.406237	2.050685	-2.407190	2.451890	0.000000	-0.310007	0.000000	-0.000000	-0.000000	0.000000	0.000000
60.369440	14.804786	21.382092	1.526702	-2.004677	2.328932	0.000000	-0.241715	0.000000	-0.000000	-0.000000	0.000000	0.000000
60.810400	13.661134	22.938872	1.076686	-1.512321	2.236795	0.000000	-0.176574	0.000000	-0.000000	-0.000000	0.000000	0.000000
61.251360	12.891253	24.029317	0.675860	-0.951157	2.172912	0.000000	-0.113444	0.000000	-0.000000	-0.000000	0.000000	0.000000
61.692320	12.459967	24.603812	0.305912	-0.346715	2.136557	0.000000	-0.051606	0.000000	-0.000000	-0.000000	0.000000	0.000000
62.134530	12.347622	24.635687	-0.019881	0.213033	2.127319	0.000000	0.004427	0.000000	-0.000001	-0.000000	0.000000	0.000000
62.431853	12.366607	24.512759	-0.043970	0.200417	2.128635	0.000000	0.004427	0.000000	-0.000001	-0.000000	0.000000	0.000000
62.765186	12.404922	24.383863	-0.070976	0.186272	2.130111	0.000000	0.004427	0.000000	-0.000001	-0.000000	0.000000	0.000000
63.098520	12.461242	24.264396	-0.097983	0.172128	2.131587	0.000000	0.004427	0.000000	-0.000001	-0.000000	0.000000	0.000000
63.433103	12.535878	24.153964	-0.125090	0.157930	2.133068	0.000000	0.004427	0.000000	-0.000001	-0.000000	0.000000	0.000000
63.730426	12.617425	24.063803	-0.118237	0.086302	2.134384	0.000000	-0.000807	0.000000	-0.000001	-0.000000	0.000000	0.000000
64.171386	12.882292	23.722659	-0.484702	0.684394	2.147572	0.000000	0.060676	0.000000	-0.000001	-0.000000	0.000000	0.000000
64.612346	13.478859	22.865814	-0.873312	1.251347	2.187997	0.000000	0.122850	0.000000	-0.000001	-0.000000	0.000000	0.000000
65.053306	14.434380	21.532253	-1.301821	1.761365	2.256121	0.000000	0.186424	0.000000	-0.000001	-0.000000	0.000000	0.000000
65.494266	15.792512	19.782654	-1.789806	2.191243	2.352720	0.000000	0.252121	0.000000	-0.000001	-0.000000	0.000000	0.000000
65.940226	17.638474	17.671850	-2.364257	2.522178	2.480466	0.000000	0.321091	0.000000	-0.000001	-0.000000	0.000000	0.000000
66.489286	20.004540	15.310420	-1.919536	1.804069	2.636391	0.000000	0.246045	0.000000	-0.000002	-0.000000	0.000000	0.000000
67.038346	21.804452	13.662792	-1.339229	1.214459	2.749851	0.000000	0.166635	0.000000	-0.000002	-0.000000	0.000000	0.000000
67.587406	22.911075	12.611611	-0.664326	0.711353	2.818834	0.000000	0.084270	0.000000	-0.000002	-0.000000	0.000000	0.000000
68.136466	23.246242	12.082002	0.057502	0.258914	2.842115	0.000000	0.000409	0.000000	-0.000002	-0.000000	0.000000	0.000000
68.435038	23.252010	11.916543	-0.016081	0.263685	2.844455	0.000000	0.007835	0.000000	-0.000002	-0.000000	0.000000	0.000000
68.768372	23.267511	11.750725	-0.030421	0.233768	2.847066	0.000000	0.007835	0.000000	-0.000002	-0.000000	0.000000	0.000000
69.101705	23.292571	11.604852	-0.044760	0.203851	2.849678	0.000000	0.007835	0.000000	-0.000002	-0.000000	0.000000	0.000000
69.436288	23.327338	11.478489	-0.059153	0.173821	2.852300	0.000000	0.007835	0.000000	-0.000002	-0.000000	0.000000	0.000000
69.733611	23.366316	11.383061	-0.132996	0.176879	2.854629	0.000000	0.015294	0.000000	-0.000002	-0.000000	0.000000	0.000000
70.282671	23.111070	11.416700	0.595123	-0.238506	2.839834	0.000000	-0.069109	0.000000	-0.000002	-0.000000	0.000000	0.000000
