#ParticleID	Turn	x[m]	xp	y[m]	yp	z[m]	dE[GeV]# s	beta_x	beta_y	alpha_x	alpha_y	D_x	D_y	D_px	D_py	orbit_x	orbit_px	orbit_y	orbit_py
0.300000	11.811172	25.029775	-0.010721	-0.027170	2.618073	0.000000	0.000027	0.000000	-0.000001	0.000001	0.000000	0.000000
0.601250	11.825316	25.049773	-0.036229	-0.039214	2.618081	0.000000	0.000027	0.000000	-0.000000	0.000001	0.000000	0.000000
0.898573	11.854344	25.076626	-0.032335	-0.112596	2.618088	0.000000	-0.006394	0.000000	0.000000	0.000001	0.000000	0.000000
1.339533	12.034958	24.897754	-0.378810	0.516697	2.631561	0.000000	0.067563	0.000000	0.000001	0.000001	0.000000	0.000000
1.780493	12.527583	24.172181	-0.742593	1.122481	2.677785	0.000000	0.142289	0.000000	0.000002	0.000002	0.000000	0.000000
2.221453	13.354728	22.932921	-1.140303	1.677192	2.757285	0.000000	0.218636	0.000000	0.000002	0.000002	0.000000	0.000000
2.662413	14.554180	21.236360	-1.590110	2.155593	2.870968	0.000000	0.297473	0.000000	0.000003	0.000002	0.000000	0.000000
3.108373	16.201478	19.134809	-2.116853	2.537049	3.021990	0.000000	0.380187	0.000000	0.000004	0.000002	0.000000	0.000000
3.657433	18.313872	16.774441	-1.707664	1.787252	3.205463	0.000000	0.287149	0.000000	0.000005	0.000002	0.000000	0.000000
4.206493	19.907629	15.163122	-1.177854	1.164757	3.336377	0.000000	0.189018	0.000000	0.000005	0.000001	0.000000	0.000000
4.755553	20.870175	14.186081	-0.564846	0.625225	3.412410	0.000000	0.087534	0.000000	0.000006	0.000001	0.000000	0.000000
5.304613	21.133519	13.773727	0.088059	0.130227	3.432213	0.000000	-0.015503	0.000000	0.000007	0.000001	0.000000	0.000000
5.603185	21.118129	13.681125	0.018701	0.143937	3.430262	0.000000	-0.006535	0.000000	0.000007	0.000001	0.000000	0.000000
5.936519	21.110925	13.593456	0.002911	0.119067	3.428083	0.000000	-0.006535	0.000000	0.000007	0.000001	0.000000	0.000000
6.269852	21.114247	13.522368	-0.012878	0.094198	3.425904	0.000000	-0.006535	0.000000	0.000008	0.000001	0.000000	0.000000
6.604435	21.128168	13.467686	-0.028727	0.069236	3.423717	0.000000	-0.006535	0.000000	0.000008	0.000001	0.000000	0.000000
6.901758	21.149438	13.433110	-0.098067	0.082149	3.421774	0.000000	0.002404	0.000000	0.000009	0.000001	0.000000	0.000000
7.450818	20.896689	13.603763	0.555673	-0.394792	3.394892	0.000000	-0.100179	0.000000	0.000009	0.000001	0.000000	0.000000
7.999878	19.943460	14.310429	1.170162	-0.899853	3.312091	0.000000	-0.200986	0.000000	0.000009	0.000000	0.000000	0.000000
8.548938	18.357081	15.603444	1.701997	-1.469009	3.174839	0.000000	-0.298228	0.000000	0.000010	0.000000	0.000000	0.000000
9.097998	16.249606	17.574906	2.113612	-2.142799	2.985572	0.000000	-0.390180	0.000000	0.000010	-0.000000	0.000000	0.000000
9.543958	14.605411	19.331568	1.586364	-1.779607	2.829875	0.000000	-0.308470	0.000000	0.000010	0.000000	0.000000	0.000000
9.984918	13.409547	20.710975	1.135879	-1.336680	2.711099	0.000000	-0.230759	0.000000	0.000010	0.000000	0.000000	0.000000
10.425878	12.586676	21.671342	0.737290	-0.832934	2.625979	0.000000	-0.155675	0.000000	0.000010	0.000001	0.000000	0.000000
10.866838	12.099204	22.168974	0.372385	-0.291291	2.573545	0.000000	-0.082364	0.000000	0.000010	0.000001	0.000000	0.000000
11.309048	11.924724	22.180706	0.053628	0.209157	2.553181	0.000000	-0.016252	0.000000	0.000011	0.000001	0.000000	0.000000
11.606371	11.900269	22.060491	0.028623	0.195166	2.548349	0.000000	-0.016252	0.000000	0.000011	0.000001	0.000000	0.000000
12.086371	11.892168	21.883973	-0.011745	0.172579	2.540547	0.000000	-0.016252	0.000000	0.000012	0.000001	0.000000	0.000000
12.566371	11.922820	21.729139	-0.052114	0.149992	2.532745	0.000000	-0.016252	0.000000	0.000012	0.000001	0.000000	0.000000
13.046371	11.992226	21.595988	-0.092482	0.127405	2.524944	0.000000	-0.016252	0.000000	0.000013	0.000001	0.000000	0.000000
13.526371	12.100385	21.484521	-0.132850	0.104818	2.517142	0.000000	-0.016252	0.000000	0.000013	0.000001	0.000000	0.000000
14.007621	12.247731	21.394533	-0.173323	0.082172	2.509320	0.000000	-0.016252	0.000000	0.000014	0.000001	0.000000	0.000000
14.304943	12.358231	21.349829	-0.168026	0.015832	2.504487	0.000000	-0.022393	0.000000	0.000014	0.000001	0.000000	0.000000
14.745903	12.664936	21.102198	-0.530151	0.543605	2.510245	0.000000	0.048535	0.000000	0.000015	0.000001	0.000000	0.000000
15.186863	13.300440	20.398283	-0.916497	1.046644	2.547372	0.000000	0.120017	0.000000	0.000015	0.000002	0.000000	0.000000
15.627823	14.293776	19.270113	-1.344715	1.502061	2.616289	0.000000	0.192865	0.000000	0.000016	0.000002	0.000000	0.000000
16.068783	15.690327	17.769018	-1.834369	1.889136	2.717784	0.000000	0.267910	0.000000	0.000017	0.000003	0.000000	0.000000
16.514743	17.577556	15.941795	-2.412588	2.191000	2.854705	0.000000	0.346469	0.000000	0.000019	0.000003	0.000000	0.000000
17.063803	20.001469	13.901552	-1.975937	1.546817	3.021203	0.000000	0.259126	0.000000	0.000020	0.000003	0.000000	0.000000
17.612863	21.865942	12.504409	-1.399715	1.012810	3.138410	0.000000	0.167187	0.000000	0.000021	0.000002	0.000000	0.000000
18.161923	23.039279	11.650852	-0.724624	0.550944	3.204247	0.000000	0.072282	0.000000	0.000022	0.000001	0.000000	0.000000
18.710983	23.438599	11.280084	0.001650	0.128320	3.217548	0.000000	-0.023904	0.000000	0.000023	0.000000	0.000000	0.000000
19.009556	23.477993	11.193962	-0.072362	0.130659	3.212920	0.000000	-0.015499	0.000000	0.000023	0.000000	0.000000	0.000000
19.342889	23.530992	11.116951	-0.086634	0.100373	3.207754	0.000000	-0.015499	0.000000	0.000023	0.000000	0.000000	0.000000
19.676223	23.593505	11.060131	-0.100906	0.070087	3.202587	0.000000	-0.015499	0.000000	0.000023	0.000000	0.000000	0.000000
20.010806	23.666115	11.023266	-0.232487	0.094303	3.197421	0.000000	0.000343	0.000000	0.000023	0.000001	0.000000	0.000000
20.308129	23.808299	10.975281	-0.307924	0.095761	3.197523	0.000000	0.008696	0.000000	0.000023	0.000001	0.000000	0.000000
20.857189	23.735799	11.092198	0.439186	-0.309959	3.176074	0.000000	-0.086710	0.000000	0.000024	-0.000000	0.000000	0.000000
21.406249	22.855131	11.664082	1.155274	-0.737758	3.102588	0.000000	-0.180577	0.000000	0.000023	-0.000001	0.000000	0.000000
21.955309	21.228501	12.731668	1.789759	-1.218106	2.978368	0.000000	-0.271242	0.000000	0.000023	-0.000002	0.000000	0.000000
22.504369	18.970806	14.370995	2.297825	-1.785216	2.805617	0.000000	-0.357096	0.000000	0.000022	-0.000002	0.000000	0.000000
22.950329	17.191497	15.842848	1.706096	-1.501273	2.663663	0.000000	-0.279876	0.000000	0.000021	-0.000002	0.000000	0.000000
23.391289	15.916180	17.016364	1.197011	-1.149876	2.556574	0.000000	-0.206298	0.000000	0.000020	-0.000001	0.000000	0.000000
23.832249	15.064115	17.855635	0.742614	-0.746161	2.481381	0.000000	-0.135070	0.000000	0.000020	-0.000001	0.000000	0.000000
24.273209	14.596373	18.322473	0.322146	-0.308496	2.437228	0.000000	-0.065381	0.000000	0.000019	-0.000000	0.000000	0.000000
24.715418	14.491704	18.395393	-0.048161	0.098033	2.423608	0.000000	-0.002378	0.000000	0.000019	0.000000	0.000000	0.000000
25.012741	14.526457	18.341950	-0.068725	0.081715	2.422901	0.000000	-0.002378	0.000000	0.000019	0.000000	0.000000	0.000000
25.346075	14.579958	18.293571	-0.091780	0.063420	2.422108	0.000000	-0.002378	0.000000	0.000019	0.000000	0.000000	0.000000
25.679408	14.648830	18.257390	-0.114835	0.045126	2.421316	0.000000	-0.002378	0.000000	0.000019	0.000000	0.000000	0.000000
26.013991	14.733118	18.233707	-0.018452	-0.121158	2.420496	0.000000	-0.022015	0.000000	0.000020	0.000000	0.000000	0.000000
26.311314	14.750092	18.310672	-0.002474	-0.182599	2.413950	0.000000	-0.027933	0.000000	0.000020	-0.000000	0.000000	0.000000
26.752274	14.933997	18.273138	-0.416162	0.267396	2.416745	0.000000	0.040623	0.000000	0.000020	0.000000	0.000000	0.000000
27.193234	15.489714	17.842613	-0.848862	0.705224	2.449844	0.000000	0.109642	0.000000	0.000020	0.000001	0.000000	0.000000
27.634194	16.442633	17.038687	-1.320345	1.110965	2.513623	0.000000	0.179910	0.000000	0.000021	0.000002	0.000000	0.000000
28.075154	17.836290	15.897937	-1.852150	1.466158	2.608810	0.000000	0.252227	0.000000	0.000021	0.000002	0.000000	0.000000
28.521114	19.758568	14.455083	-2.473544	1.755554	2.738091	0.000000	0.327860	0.000000	0.000022	0.000003	0.000000	0.000000
29.070174	22.201796	12.847493	-1.949949	1.189622	2.895436	0.000000	0.244444	0.000000	0.000024	0.000002	0.000000	0.000000
29.619234	23.990555	11.811467	-1.288620	0.708424	3.005721	0.000000	0.156692	0.000000	0.000024	0.000001	0.000000	0.000000
30.168294	24.998495	11.273210	-0.536268	0.277686	3.066991	0.000000	0.066161	0.000000	0.000025	0.000000	0.000000	0.000000
30.717354	25.154420	11.194384	0.253963	-0.133273	3.078158	0.000000	-0.025544	0.000000	0.000025	-0.000000	0.000000	0.000000
31.015927	25.045676	11.264555	0.175962	-0.130991	3.072933	0.000000	-0.017503	0.000000	0.000025	-0.000000	0.000000	0.000000
31.349260	24.932942	11.361915	0.162241	-0.161090	3.067099	0.000000	-0.017503	0.000000	0.000025	-0.000000	0.000000	0.000000
31.682593	24.829354	11.479341	0.148520	-0.191189	3.061264	0.000000	-0.017503	0.000000	0.000024	-0.000000	0.000000	0.000000
32.017177	24.734578	11.617387	0.134747	-0.221401	3.055408	0.000000	-0.017503	0.000000	0.000024	-0.000000	0.000000	0.000000
32.314499	24.658090	11.757024	0.058095	-0.217536	3.050205	0.000000	-0.009535	0.000000	0.000024	-0.000000	0.000000	0.000000
32.863559	24.171811	12.235102	0.822319	-0.658323	3.020083	0.000000	-0.100027	0.000000	0.000024	-0.000001	0.000000	0.000000
33.412619	22.873406	13.219972	1.528458	-1.146002	2.940690	0.000000	-0.188744	0.000000	0.000023	-0.000002	0.000000	0.000000
33.961679	20.854589	14.781784	2.126635	-1.715308	2.813436	0.000000	-0.274114	0.000000	0.000022	-0.000003	0.000000	0.000000
34.510739	18.257958	17.031784	2.574597	-2.406792	2.640576	0.000000	-0.354622	0.000000	0.000020	-0.000003	0.000000	0.000000
34.956699	16.238950	19.044339	1.968952	-2.087225	2.498774	0.000000	-0.281681	0.000000	0.000019	-0.000003	0.000000	0.000000
35.397659	14.733389	20.708975	1.458279	-1.673436	2.389948	0.000000	-0.212377	0.000000	0.000018	-0.000002	0.000000	0.000000
35.838619	13.647232	21.973585	1.014230	-1.183507	2.311122	0.000000	-0.145491	0.000000	0.000017	-0.000002	0.000000	0.000000
36.279579	12.930854	22.780630	0.616519	-0.639729	2.261395	0.000000	-0.080263	0.000000	0.000016	-0.000001	0.000000	0.000000
36.721789	12.550833	23.093700	0.277643	-0.123522	2.240177	0.000000	-0.021441	0.000000	0.000015	-0.000001	0.000000	0.000000
37.019112	12.393321	23.171038	0.252127	-0.136593	2.233802	0.000000	-0.021441	0.000000	0.000015	-0.000001	0.000000	0.000000
37.352445	12.234771	23.266985	0.223521	-0.151247	2.226655	0.000000	-0.021441	0.000000	0.000015	-0.000001	0.000000	0.000000
37.685779	12.095293	23.372701	0.194915	-0.165902	2.219509	0.000000	-0.021441	0.000000	0.000014	-0.000001	0.000000	0.000000
38.020362	11.974469	23.488639	0.166202	-0.180611	2.212335	0.000000	-0.021441	0.000000	0.000014	-0.000001	0.000000	0.000000
38.317684	11.883224	23.599924	0.169824	-0.251549	2.205960	0.000000	-0.026850	0.000000	0.000014	-0.000001	0.000000	0.000000
38.758644	11.884941	23.560367	-0.173733	0.340914	2.208050	0.000000	0.036335	0.000000	0.000013	-0.000001	0.000000	0.000000
39.199604	12.191990	23.003175	-0.525228	0.917866	2.238067	0.000000	0.099935	0.000000	0.000013	-0.000000	0.000000	0.000000
39.640564	12.818399	21.953700	-0.900718	1.453055	2.296352	0.000000	0.164672	0.000000	0.000013	-0.000000	0.000000	0.000000
40.081524	13.792786	20.459692	-1.317360	1.922132	2.383569	0.000000	0.231285	0.000000	0.000013	0.000000	0.000000	0.000000
40.527484	15.177246	18.566554	-1.798016	2.305037	2.502185	0.000000	0.300938	0.000000	0.000013	0.000001	0.000000	0.000000
41.076544	16.943935	16.439117	-1.400598	1.592523	2.646885	0.000000	0.225370	0.000000	0.000013	0.000000	0.000000	0.000000
41.625604	18.216970	15.027600	-0.904249	0.993440	2.748934	0.000000	0.145805	0.000000	0.000013	-0.000000	0.000000	0.000000
42.174664	18.906431	14.231463	-0.344029	0.465118	2.806522	0.000000	0.063654	0.000000	0.000013	-0.000001	0.000000	0.000000
42.723724	18.963617	13.994000	0.240492	-0.030075	2.818627	0.000000	-0.019627	0.000000	0.000012	-0.000001	0.000000	0.000000
43.022297	18.854465	13.996498	0.174630	-0.014851	2.814966	0.000000	-0.012263	0.000000	0.000012	-0.000001	0.000000	0.000000
43.502297	18.699413	14.027220	0.148396	-0.049153	2.809080	0.000000	-0.012263	0.000000	0.000011	-0.000001	0.000000	0.000000
43.982297	18.569546	14.090871	0.122161	-0.083455	2.803194	0.000000	-0.012263	0.000000	0.000011	-0.000001	0.000000	0.000000
44.462297	18.464863	14.187453	0.095927	-0.117757	2.797308	0.000000	-0.012263	0.000000	0.000010	-0.000001	0.000000	0.000000
44.942297	18.385366	14.316964	0.069692	-0.152058	2.791423	0.000000	-0.012263	0.000000	0.000010	-0.000001	0.000000	0.000000
45.423547	18.331173	14.479692	-0.047434	-0.114708	2.785539	0.000000	0.001538	0.000000	0.000009	-0.000001	0.000000	0.000000
45.720870	18.364212	14.554088	-0.111668	-0.097488	2.785996	0.000000	0.008817	0.000000	0.000009	-0.000001	0.000000	0.000000
46.269930	18.177622	14.942607	0.449492	-0.614295	2.768264	0.000000	-0.073315	0.000000	0.000008	-0.000001	0.000000	0.000000
46.818990	17.388678	15.919193	0.978901	-1.174856	2.705728	0.000000	-0.154147	0.000000	0.000008	-0.000002	0.000000	0.000000
47.368050	16.053107	17.553409	1.439167	-1.819100	2.599497	0.000000	-0.232244	0.000000	0.000007	-0.000002	0.000000	0.000000
47.917110	14.265247	19.961655	1.797776	-2.592915	2.451454	0.000000	-0.306222	0.000000	0.000006	-0.000002	0.000000	0.000000
48.363070	12.873979	22.102761	1.332992	-2.188018	2.330185	0.000000	-0.237920	0.000000	0.000005	-0.000002	0.000000	0.000000
48.804030	11.878597	23.817061	0.932878	-1.684842	2.239733	0.000000	-0.172725	0.000000	0.000004	-0.000002	0.000000	0.000000
49.244990	11.216027	25.051973	0.575384	-1.105008	2.177569	0.000000	-0.109497	0.000000	0.000003	-0.000002	0.000000	0.000000
49.685950	10.855998	25.751309	0.244179	-0.474897	2.142984	0.000000	-0.047516	0.000000	0.000003	-0.000002	0.000000	0.000000
50.128160	10.782185	25.882966	-0.049547	0.113302	2.135596	0.000000	0.008686	0.000000	0.000002	-0.000002	0.000000	0.000000
50.425482	10.819867	25.819051	-0.077190	0.101667	2.138179	0.000000	0.008686	0.000000	0.000001	-0.000002	0.000000	0.000000
50.758816	10.881658	25.755621	-0.108181	0.088623	2.141075	0.000000	0.008686	0.000000	0.000001	-0.000002	0.000000	0.000000
51.092149	10.964109	25.700887	-0.139172	0.075579	2.143971	0.000000	0.008686	0.000000	0.000000	-0.000002	0.000000	0.000000
51.426732	11.067422	25.655213	-0.080494	-0.145641	2.146856	0.000000	-0.008730	0.000000	-0.000000	-0.000002	0.000000	0.000000
51.724055	11.123326	25.745336	-0.080254	-0.220612	2.144261	0.000000	-0.013989	0.000000	-0.000001	-0.000002	0.000000	0.000000
52.165015	11.339351	25.653462	-0.411500	0.428170	2.151681	0.000000	0.047675	0.000000	-0.000001	-0.000002	0.000000	0.000000
52.605975	11.854661	24.995852	-0.761545	1.057470	2.186387	0.000000	0.109881	0.000000	-0.000002	-0.000002	0.000000	0.000000
53.046935	12.692801	23.802427	-1.146383	1.638656	2.248773	0.000000	0.173339	0.000000	-0.000003	-0.000002	0.000000	0.000000
53.487895	13.892063	22.127486	-1.583596	2.145285	2.339549	0.000000	0.238772	0.000000	-0.000003	-0.000002	0.000000	0.000000
53.933855	15.527797	20.022197	-2.097386	2.555643	2.461255	0.000000	0.307322	0.000000	-0.000004	-0.000002	0.000000	0.000000
54.482915	17.633777	17.653182	-1.715521	1.784501	2.609814	0.000000	0.233018	0.000000	-0.000005	-0.000002	0.000000	0.000000
55.031975	19.250998	16.056625	-1.212480	1.140464	2.716379	0.000000	0.154581	0.000000	-0.000006	-0.000002	0.000000	0.000000
55.581035	20.265226	15.118807	-0.623795	0.577661	2.779061	0.000000	0.073402	0.000000	-0.000007	-0.000001	0.000000	0.000000
56.130095	20.604822	14.772929	0.008951	0.056003	2.796746	0.000000	-0.009079	0.000000	-0.000008	-0.000001	0.000000	0.000000
56.428668	20.635962	14.722525	-0.059408	0.074213	2.796218	0.000000	-0.001771	0.000000	-0.000008	-0.000001	0.000000	0.000000
56.762001	20.680971	14.680638	-0.075618	0.051447	2.795628	0.000000	-0.001771	0.000000	-0.000008	-0.000001	0.000000	0.000000
57.095334	20.736787	14.653929	-0.091828	0.028681	2.795038	0.000000	-0.001771	0.000000	-0.000009	-0.000001	0.000000	0.000000
57.429918	20.803679	14.642382	-0.108099	0.005830	2.794445	0.000000	-0.001771	0.000000	-0.000009	-0.000001	0.000000	0.000000
57.727240	20.872259	14.644953	-0.177098	0.023791	2.793919	0.000000	0.005530	0.000000	-0.000009	-0.000001	0.000000	0.000000
58.276300	20.710667	14.900018	0.469662	-0.491082	2.774317	0.000000	-0.076829	0.000000	-0.000010	-0.000001	0.000000	0.000000
58.825360	19.852949	15.736251	1.083247	-1.040934	2.709803	0.000000	-0.157824	0.000000	-0.000010	-0.000000	0.000000	0.000000
59.374420	18.359692	17.213214	1.620316	-1.664930	2.601522	0.000000	-0.236021	0.000000	-0.000010	-0.000000	0.000000	0.000000
59.923480	16.336370	19.436109	2.042935	-2.407515	2.451393	0.000000	-0.310030	0.000000	-0.000010	0.000000	0.000000	0.000000
60.369440	14.752758	21.411817	1.520659	-2.004020	2.328421	0.000000	-0.241752	0.000000	-0.000010	-0.000000	0.000000	0.000000
60.810400	13.613794	22.967596	1.072059	-1.510719	2.236265	0.000000	-0.176625	0.000000	-0.000010	-0.000000	0.000000	0.000000
61.251360	12.847448	24.056236	0.672439	-0.948682	2.172358	0.000000	-0.113509	0.000000	-0.000011	-0.000001	0.000000	0.000000
61.692320	12.418706	24.628204	0.303540	-0.343481	2.135971	0.000000	-0.051685	0.000000	-0.000011	-0.000001	0.000000	0.000000
62.134530	12.308036	24.656935	-0.021406	0.216822	2.126695	0.000000	0.004333	0.000000	-0.000011	-0.000001	0.000000	0.000000
62.431853	12.327951	24.531756	-0.045574	0.204197	2.127984	0.000000	0.004333	0.000000	-0.000012	-0.000001	0.000000	0.000000
62.765186	12.367365	24.400343	-0.072669	0.190043	2.129429	0.000000	0.004333	0.000000	-0.000012	-0.000001	0.000000	0.000000
63.098520	12.424843	24.278366	-0.099764	0.175888	2.130874	0.000000	0.004333	0.000000	-0.000012	-0.000001	0.000000	0.000000
63.433103	12.500701	24.165421	-0.126961	0.161681	2.132324	0.000000	0.004333	0.000000	-0.000013	-0.000001	0.000000	0.000000
63.730426	12.583383	24.073032	-0.120267	0.090014	2.133613	0.000000	-0.000900	0.000000	-0.000013	-0.000001	0.000000	0.000000
64.171386	12.849715	23.728537	-0.486006	0.688254	2.146755	0.000000	0.060563	0.000000	-0.000014	-0.000001	0.000000	0.000000
64.612346	13.447134	22.868287	-0.873950	1.255179	2.187127	0.000000	0.122716	0.000000	-0.000014	-0.000002	0.000000	0.000000
65.053306	14.402937	21.531424	-1.301822	1.764995	2.255187	0.000000	0.186266	0.000000	-0.000015	-0.000002	0.000000	0.000000
65.494266	15.760789	19.778774	-1.789171	2.194505	2.351712	0.000000	0.251938	0.000000	-0.000016	-0.000003	0.000000	0.000000
65.940226	17.605889	17.665283	-2.362953	2.524919	2.479371	0.000000	0.320881	0.000000	-0.000018	-0.000003	0.000000	0.000000
66.489286	19.971216	15.300976	-1.919506	1.806600	2.635193	0.000000	0.245872	0.000000	-0.000019	-0.000002	0.000000	0.000000
67.038346	21.771798	13.650601	-1.340474	1.216962	2.748570	0.000000	0.166502	0.000000	-0.000020	-0.000002	0.000000	0.000000
67.587406	22.880451	12.596606	-0.666759	0.714005	2.817492	0.000000	0.084179	0.000000	-0.000021	-0.000001	0.000000	0.000000
68.136466	23.218866	12.063918	0.054053	0.261905	2.840736	0.000000	0.000363	0.000000	-0.000022	-0.000000	0.000000	0.000000
68.435038	23.226662	11.896722	-0.019484	0.266551	2.843061	0.000000	0.007787	0.000000	-0.000022	-0.000001	0.000000	0.000000
68.768372	23.244437	11.729025	-0.033841	0.236541	2.845657	0.000000	0.007787	0.000000	-0.000022	-0.000001	0.000000	0.000000
69.101705	23.271783	11.581333	-0.048198	0.206532	2.848252	0.000000	0.007787	0.000000	-0.000022	-0.000001	0.000000	0.000000
69.436288	23.308857	11.453208	-0.062608	0.176410	2.850858	0.000000	0.007787	0.000000	-0.000022	-0.000001	0.000000	0.000000
69.733611	23.349894	11.356265	-0.136434	0.179319	2.853173	0.000000	0.015243	0.000000	-0.000022	-0.000001	0.000000	0.000000
70.282671	23.098690	11.386802	0.591243	-0.235265	2.838363	0.000000	-0.069113	0.000000	-0.000023	0.000000	0.000000	0.000000
