#ParticleID	Turn	x[m]	xp	y[m]	yp	z[m]	dE[GeV]# s	beta_x	beta_y	alpha_x	alpha_y	D_x	D_y	D_px	D_py	orbit_x	orbit_px	orbit_y	orbit_py
0.300000	11.817955	25.001902	-0.011484	-0.027449	2.618048	0.000000	0.000037	0.000000	-0.000001	0.000001	0.000000	0.000000
0.601250	11.832554	25.022073	-0.036978	-0.039508	2.618058	0.000000	0.000037	0.000000	-0.000000	0.000001	0.000000	0.000000
0.898573	11.862024	25.049104	-0.033051	-0.112836	2.618069	0.000000	-0.006384	0.000000	0.000000	0.000001	0.000000	0.000000
1.339533	12.043352	24.870763	-0.379720	0.515735	2.631546	0.000000	0.067573	0.000000	0.000001	0.000001	0.000000	0.000000
1.780493	12.536880	24.146342	-0.743738	1.120840	2.677774	0.000000	0.142298	0.000000	0.000001	0.000001	0.000000	0.000000
2.221453	13.365156	22.908802	-1.141735	1.674948	2.757279	0.000000	0.218645	0.000000	0.000002	0.000001	0.000000	0.000000
2.662413	14.566022	21.214449	-1.591894	2.152848	2.870966	0.000000	0.297482	0.000000	0.000002	0.000001	0.000000	0.000000
3.108373	16.215100	19.115527	-2.119075	2.533926	3.021992	0.000000	0.380196	0.000000	0.000003	0.000001	0.000000	0.000000
3.657433	18.329754	16.758153	-1.709533	1.784889	3.205470	0.000000	0.287158	0.000000	0.000003	0.000001	0.000000	0.000000
4.206493	19.925308	15.149090	-1.179238	1.162986	3.336389	0.000000	0.189027	0.000000	0.000004	0.000001	0.000000	0.000000
4.755553	20.889061	14.173729	-0.565648	0.623920	3.412427	0.000000	0.087542	0.000000	0.000004	0.000001	0.000000	0.000000
5.304613	21.152937	13.762595	0.087897	0.129294	3.432235	0.000000	-0.015495	0.000000	0.000005	0.000001	0.000000	0.000000
5.603185	21.137670	13.670570	0.018501	0.142965	3.430285	0.000000	-0.006528	0.000000	0.000005	0.000001	0.000000	0.000000
5.936519	21.130595	13.583554	0.002726	0.118083	3.428109	0.000000	-0.006528	0.000000	0.000005	0.000001	0.000000	0.000000
6.269852	21.134036	13.513126	-0.013049	0.093202	3.425933	0.000000	-0.006528	0.000000	0.000005	0.000001	0.000000	0.000000
6.604435	21.148066	13.459114	-0.028884	0.068227	3.423749	0.000000	-0.006528	0.000000	0.000006	0.000001	0.000000	0.000000
6.901758	21.169425	13.425142	-0.098263	0.081109	3.421808	0.000000	0.002412	0.000000	0.000006	0.000001	0.000000	0.000000
7.450818	20.916524	13.596818	0.556146	-0.395627	3.394930	0.000000	-0.100172	0.000000	0.000006	0.000001	0.000000	0.000000
7.999878	19.962421	14.304316	1.171271	-0.900542	3.312132	0.000000	-0.200980	0.000000	0.000007	0.000000	0.000000	0.000000
8.548938	18.374509	15.598031	1.703664	-1.469601	3.174884	0.000000	-0.298223	0.000000	0.000007	0.000000	0.000000	0.000000
9.097998	16.264951	17.570109	2.115719	-2.143336	2.985619	0.000000	-0.390177	0.000000	0.000007	-0.000000	0.000000	0.000000
9.543958	14.619085	19.327345	1.588014	-1.780353	2.829923	0.000000	-0.308467	0.000000	0.000007	0.000000	0.000000	0.000000
9.984918	13.421937	20.707489	1.137153	-1.337598	2.711148	0.000000	-0.230753	0.000000	0.000007	0.000000	0.000000	0.000000
10.425878	12.598088	21.668727	0.738244	-0.833983	2.626031	0.000000	-0.155669	0.000000	0.000007	0.000000	0.000000	0.000000
10.866838	12.109897	22.167324	0.373064	-0.292422	2.573601	0.000000	-0.082357	0.000000	0.000007	0.000001	0.000000	0.000000
11.309048	11.934926	22.180074	0.054089	0.207995	2.553241	0.000000	-0.016243	0.000000	0.000007	0.000001	0.000000	0.000000
11.606371	11.910191	22.060549	0.029105	0.194010	2.548411	0.000000	-0.016243	0.000000	0.000008	0.000001	0.000000	0.000000
12.086371	11.901612	21.885137	-0.011231	0.171432	2.540614	0.000000	-0.016243	0.000000	0.000008	0.000001	0.000000	0.000000
12.566371	11.931755	21.731399	-0.051567	0.148855	2.532816	0.000000	-0.016243	0.000000	0.000008	0.000001	0.000000	0.000000
13.046371	12.000620	21.599335	-0.091903	0.126278	2.525019	0.000000	-0.016243	0.000000	0.000009	0.000001	0.000000	0.000000
13.526371	12.108208	21.488946	-0.132238	0.103701	2.517222	0.000000	-0.016243	0.000000	0.000009	0.000001	0.000000	0.000000
14.007621	12.254950	21.400027	-0.172679	0.081065	2.509405	0.000000	-0.016243	0.000000	0.000010	0.000001	0.000000	0.000000
14.304943	12.365061	21.355981	-0.167344	0.014714	2.504575	0.000000	-0.022385	0.000000	0.000010	0.000001	0.000000	0.000000
14.745903	12.671225	21.109255	-0.529602	0.542676	2.510337	0.000000	0.048546	0.000000	0.000010	0.000001	0.000000	0.000000
15.186863	13.306294	20.406060	-0.916056	1.045947	2.547469	0.000000	0.120030	0.000000	0.000011	0.000001	0.000000	0.000000
15.627823	14.299281	19.278389	-1.344362	1.501629	2.616393	0.000000	0.192881	0.000000	0.000011	0.000002	0.000000	0.000000
16.068783	15.695554	17.777552	-1.834088	1.888987	2.717895	0.000000	0.267929	0.000000	0.000012	0.000002	0.000000	0.000000
16.514743	17.582559	15.950330	-2.412366	2.191144	2.854826	0.000000	0.346490	0.000000	0.000013	0.000002	0.000000	0.000000
17.063803	20.006091	13.910032	-1.975470	1.546774	3.021335	0.000000	0.259143	0.000000	0.000014	0.000002	0.000000	0.000000
17.612863	21.869932	12.513040	-1.399036	1.012577	3.138551	0.000000	0.167200	0.000000	0.000015	0.000001	0.000000	0.000000
18.161923	23.042427	11.659851	-0.723781	0.550504	3.204394	0.000000	0.072291	0.000000	0.000016	0.000001	0.000000	0.000000
18.710983	23.440759	11.289693	0.002598	0.127642	3.217698	0.000000	-0.023900	0.000000	0.000016	0.000000	0.000000	0.000000
19.009556	23.479592	11.203951	-0.071422	0.130036	3.213072	0.000000	-0.015494	0.000000	0.000016	0.000000	0.000000	0.000000
19.342889	23.531962	11.127345	-0.085691	0.099782	3.207907	0.000000	-0.015494	0.000000	0.000016	0.000000	0.000000	0.000000
19.676223	23.593846	11.070908	-0.099960	0.069527	3.202742	0.000000	-0.015494	0.000000	0.000016	0.000000	0.000000	0.000000
20.010806	23.665821	11.034407	-0.231536	0.093831	3.197578	0.000000	0.000348	0.000000	0.000016	0.000000	0.000000	0.000000
20.308129	23.807439	10.986693	-0.306969	0.095351	3.197681	0.000000	0.008702	0.000000	0.000017	0.000000	0.000000	0.000000
20.857189	23.733911	11.104239	0.440092	-0.310700	3.176234	0.000000	-0.086709	0.000000	0.000017	-0.000000	0.000000	0.000000
21.406249	22.852305	11.677140	1.156067	-0.738881	3.102747	0.000000	-0.180582	0.000000	0.000016	-0.000001	0.000000	0.000000
21.955309	21.224892	12.746204	1.790384	-1.219691	2.978523	0.000000	-0.271251	0.000000	0.000016	-0.000001	0.000000	0.000000
22.504369	18.966626	14.387577	2.298236	-1.787377	2.805765	0.000000	-0.357110	0.000000	0.000015	-0.000002	0.000000	0.000000
22.950329	17.186933	15.861190	1.706549	-1.503044	2.663806	0.000000	-0.279886	0.000000	0.000015	-0.000001	0.000000	0.000000
23.391289	15.911192	17.036067	1.197527	-1.151179	2.556713	0.000000	-0.206305	0.000000	0.000014	-0.000001	0.000000	0.000000
23.832249	15.058636	17.876257	0.743215	-0.746936	2.481517	0.000000	-0.135074	0.000000	0.000014	-0.000001	0.000000	0.000000
24.273209	14.590316	18.343532	0.322860	-0.308708	2.437363	0.000000	-0.065380	0.000000	0.000014	-0.000000	0.000000	0.000000
24.715418	14.484953	18.416385	-0.047315	0.098340	2.423745	0.000000	-0.002375	0.000000	0.000014	0.000000	0.000000	0.000000
25.012741	14.519206	18.362754	-0.067888	0.082040	2.423039	0.000000	-0.002375	0.000000	0.000014	0.000000	0.000000	0.000000
25.346075	14.572152	18.314152	-0.090951	0.063765	2.422247	0.000000	-0.002375	0.000000	0.000014	0.000000	0.000000	0.000000
25.679408	14.640475	18.277734	-0.114015	0.045490	2.421456	0.000000	-0.002375	0.000000	0.000014	0.000000	0.000000	0.000000
26.013991	14.724217	18.253801	-0.017713	-0.120937	2.420636	0.000000	-0.022013	0.000000	0.000014	0.000000	0.000000	0.000000
26.311314	14.740756	18.330629	-0.001768	-0.182410	2.414092	0.000000	-0.027932	0.000000	0.000014	0.000000	0.000000	0.000000
26.752274	14.923934	18.292689	-0.415216	0.268122	2.416888	0.000000	0.040628	0.000000	0.000014	0.000000	0.000000	0.000000
27.193234	15.478696	17.861299	-0.847633	0.706454	2.449990	0.000000	0.109651	0.000000	0.000014	0.000001	0.000000	0.000000
27.634194	16.430386	17.056085	-1.318776	1.112643	2.513774	0.000000	0.179923	0.000000	0.000015	0.000001	0.000000	0.000000
28.075154	17.822484	15.913686	-1.850171	1.468208	2.608967	0.000000	0.252244	0.000000	0.000015	0.000001	0.000000	0.000000
28.521114	19.742778	14.468870	-2.471059	1.757883	2.738257	0.000000	0.327881	0.000000	0.000016	0.000002	0.000000	0.000000
29.070174	22.183487	12.859028	-1.947875	1.191420	2.895612	0.000000	0.244459	0.000000	0.000017	0.000001	0.000000	0.000000
29.619234	23.970262	11.821260	-1.287104	0.709818	3.005905	0.000000	0.156702	0.000000	0.000017	0.000001	0.000000	0.000000
30.168294	24.976895	11.281648	-0.535417	0.278776	3.067178	0.000000	0.066164	0.000000	0.000018	0.000000	0.000000	0.000000
30.717354	25.132281	11.201756	0.254089	-0.132410	3.078345	0.000000	-0.025546	0.000000	0.000018	-0.000000	0.000000	0.000000
31.015927	25.023433	11.271392	0.176130	-0.130084	3.073119	0.000000	-0.017504	0.000000	0.000017	-0.000000	0.000000	0.000000
31.349260	24.910590	11.368139	0.162396	-0.160158	3.067284	0.000000	-0.017504	0.000000	0.000017	-0.000000	0.000000	0.000000
31.682593	24.806904	11.484936	0.148662	-0.190232	3.061450	0.000000	-0.017504	0.000000	0.000017	-0.000000	0.000000	0.000000
32.017177	24.712037	11.622332	0.134877	-0.220418	3.055593	0.000000	-0.017504	0.000000	0.000017	-0.000000	0.000000	0.000000
32.314499	24.635476	11.761379	0.058268	-0.216517	3.050389	0.000000	-0.009535	0.000000	0.000017	-0.000000	0.000000	0.000000
32.863559	24.149420	12.238381	0.821742	-0.657372	3.020265	0.000000	-0.100033	0.000000	0.000017	-0.000001	0.000000	0.000000
33.412619	22.852045	13.222211	1.527172	-1.145049	2.940867	0.000000	-0.188757	0.000000	0.000016	-0.000001	0.000000	0.000000
33.961679	20.834990	14.782945	2.124730	-1.714286	2.813603	0.000000	-0.274132	0.000000	0.000015	-0.000002	0.000000	0.000000
34.510739	18.240731	17.031750	2.572208	-2.405627	2.640732	0.000000	-0.354645	0.000000	0.000014	-0.000002	0.000000	0.000000
34.956699	16.223615	19.043210	1.967084	-2.085943	2.498920	0.000000	-0.281701	0.000000	0.000013	-0.000002	0.000000	0.000000
35.397659	14.719505	20.706686	1.456842	-1.672097	2.390086	0.000000	-0.212393	0.000000	0.000012	-0.000002	0.000000	0.000000
35.838619	13.634449	21.970112	1.013159	-1.182171	2.311253	0.000000	-0.145504	0.000000	0.000012	-0.000001	0.000000	0.000000
36.279579	12.918873	22.776004	0.615765	-0.638458	2.261522	0.000000	-0.080272	0.000000	0.000011	-0.000001	0.000000	0.000000
36.721789	12.539391	23.087999	0.277144	-0.122362	2.240300	0.000000	-0.021447	0.000000	0.000011	-0.000001	0.000000	0.000000
37.019112	12.382180	23.164647	0.251612	-0.135432	2.233923	0.000000	-0.021447	0.000000	0.000011	-0.000001	0.000000	0.000000
37.352445	12.223980	23.259819	0.222987	-0.150086	2.226775	0.000000	-0.021447	0.000000	0.000010	-0.000001	0.000000	0.000000
37.685779	12.084863	23.364761	0.194363	-0.164740	2.219626	0.000000	-0.021447	0.000000	0.000010	-0.000001	0.000000	0.000000
38.020362	11.964416	23.479921	0.165631	-0.179448	2.212450	0.000000	-0.021447	0.000000	0.000010	-0.000001	0.000000	0.000000
38.317684	11.873515	23.590515	0.169213	-0.250365	2.206073	0.000000	-0.026857	0.000000	0.000010	-0.000001	0.000000	0.000000
38.758644	11.875675	23.550027	-0.174129	0.341833	2.208161	0.000000	0.036332	0.000000	0.000009	-0.000001	0.000000	0.000000
39.199604	12.182985	22.992158	-0.525427	0.918477	2.238176	0.000000	0.099934	0.000000	0.000009	-0.000000	0.000000	0.000000
39.640564	12.809486	21.942291	-0.900730	1.453331	2.296461	0.000000	0.164674	0.000000	0.000009	-0.000000	0.000000	0.000000
40.081524	13.783801	20.448193	-1.317184	1.922060	2.383680	0.000000	0.231290	0.000000	0.000009	0.000000	0.000000	0.000000
40.527484	15.168018	18.555275	-1.797644	2.304619	2.502299	0.000000	0.300945	0.000000	0.000009	0.000000	0.000000	0.000000
41.076544	16.934491	16.428134	-1.400579	1.592400	2.647002	0.000000	0.225374	0.000000	0.000009	0.000000	0.000000	0.000000
41.625604	18.207700	15.016594	-0.904584	0.993605	2.749052	0.000000	0.145805	0.000000	0.000009	-0.000000	0.000000	0.000000
42.174664	18.897713	14.220114	-0.344693	0.465582	2.806638	0.000000	0.063650	0.000000	0.000009	-0.000001	0.000000	0.000000
42.723724	18.955790	13.981963	0.239544	-0.029279	2.818740	0.000000	-0.019634	0.000000	0.000009	-0.000001	0.000000	0.000000
43.022297	18.847193	13.984010	0.173700	-0.014104	2.815077	0.000000	-0.012270	0.000000	0.000009	-0.000001	0.000000	0.000000
43.502297	18.693034	14.014029	0.147464	-0.048436	2.809188	0.000000	-0.012270	0.000000	0.000008	-0.000001	0.000000	0.000000
43.982297	18.564062	14.077007	0.121227	-0.082768	2.803298	0.000000	-0.012270	0.000000	0.000008	-0.000001	0.000000	0.000000
44.462297	18.460278	14.172943	0.094991	-0.117100	2.797409	0.000000	-0.012270	0.000000	0.000007	-0.000001	0.000000	0.000000
44.942297	18.381680	14.301838	0.068755	-0.151431	2.791520	0.000000	-0.012270	0.000000	0.000007	-0.000001	0.000000	0.000000
45.423547	18.328390	14.463977	-0.048359	-0.114189	2.785633	0.000000	0.001532	0.000000	0.000007	-0.000001	0.000000	0.000000
45.720870	18.361981	14.538071	-0.112593	-0.097030	2.786088	0.000000	0.008811	0.000000	0.000006	-0.000001	0.000000	0.000000
46.269930	18.176439	14.925816	0.448518	-0.613337	2.768352	0.000000	-0.073324	0.000000	0.000006	-0.000001	0.000000	0.000000
46.818990	17.388559	15.901047	0.977948	-1.173330	2.705809	0.000000	-0.154158	0.000000	0.000005	-0.000001	0.000000	0.000000
47.368050	16.053992	17.533227	1.438301	-1.816897	2.599571	0.000000	-0.232258	0.000000	0.000005	-0.000001	0.000000	0.000000
47.917110	14.267007	19.938613	1.797060	-2.589878	2.451520	0.000000	-0.306239	0.000000	0.000004	-0.000001	0.000000	0.000000
48.363070	12.876360	22.077230	1.332310	-2.185496	2.330244	0.000000	-0.237935	0.000000	0.000003	-0.000001	0.000000	0.000000
48.804030	11.881576	23.789575	0.932199	-1.682948	2.239785	0.000000	-0.172739	0.000000	0.000003	-0.000001	0.000000	0.000000
49.244990	11.219614	25.023125	0.574677	-1.103827	2.177615	0.000000	-0.109509	0.000000	0.000002	-0.000001	0.000000	0.000000
49.685950	10.860233	25.721755	0.243411	-0.474483	2.143024	0.000000	-0.047528	0.000000	0.000002	-0.000001	0.000000	0.000000
50.128160	10.787139	25.853396	-0.050398	0.113001	2.135631	0.000000	0.008676	0.000000	0.000001	-0.000001	0.000000	0.000000
50.425482	10.825323	25.789663	-0.078030	0.101354	2.138211	0.000000	0.008676	0.000000	0.000001	-0.000001	0.000000	0.000000
50.758816	10.887670	25.726446	-0.109010	0.088296	2.141104	0.000000	0.008676	0.000000	0.000001	-0.000001	0.000000	0.000000
51.092149	10.970669	25.671935	-0.139989	0.075238	2.143996	0.000000	0.008676	0.000000	0.000000	-0.000001	0.000000	0.000000
51.426732	11.074525	25.626493	-0.081241	-0.145763	2.146878	0.000000	-0.008741	0.000000	-0.000000	-0.000001	0.000000	0.000000
51.724055	11.130870	25.716693	-0.080969	-0.220677	2.144279	0.000000	-0.013999	0.000000	-0.000000	-0.000001	0.000000	0.000000
52.165015	11.347605	25.625211	-0.412404	0.427349	2.151695	0.000000	0.047665	0.000000	-0.000001	-0.000001	0.000000	0.000000
52.605975	11.863812	24.968645	-0.762681	1.055932	2.186396	0.000000	0.109872	0.000000	-0.000001	-0.000001	0.000000	0.000000
53.046935	12.703075	23.776867	-1.147802	1.636471	2.248777	0.000000	0.173330	0.000000	-0.000002	-0.000001	0.000000	0.000000
53.487895	13.903736	22.104104	-1.585363	2.142551	2.339550	0.000000	0.238762	0.000000	-0.000002	-0.000001	0.000000	0.000000
53.933855	15.541232	20.001454	-2.099586	2.552484	2.461251	0.000000	0.307313	0.000000	-0.000003	-0.000001	0.000000	0.000000
54.482915	17.649450	17.635452	-1.717372	1.782138	2.609804	0.000000	0.233009	0.000000	-0.000004	-0.000001	0.000000	0.000000
55.031975	19.268452	16.041132	-1.213852	1.138729	2.716365	0.000000	0.154572	0.000000	-0.000004	-0.000001	0.000000	0.000000
55.581035	20.283878	15.104934	-0.624591	0.576429	2.779041	0.000000	0.073394	0.000000	-0.000005	-0.000001	0.000000	0.000000
56.130095	20.624004	14.760174	0.008787	0.055187	2.796722	0.000000	-0.009087	0.000000	-0.000005	-0.000001	0.000000	0.000000
56.428668	20.655268	14.710282	-0.059608	0.073348	2.796191	0.000000	-0.001779	0.000000	-0.000005	-0.000001	0.000000	0.000000
56.762001	20.700405	14.668977	-0.075804	0.050566	2.795598	0.000000	-0.001779	0.000000	-0.000006	-0.000001	0.000000	0.000000
57.095334	20.756340	14.642860	-0.091999	0.027785	2.795005	0.000000	-0.001779	0.000000	-0.000006	-0.000001	0.000000	0.000000
57.429918	20.823341	14.631919	-0.108255	0.004917	2.794410	0.000000	-0.001779	0.000000	-0.000006	-0.000001	0.000000	0.000000
57.727240	20.892009	14.635036	-0.177291	0.022837	2.793882	0.000000	0.005521	0.000000	-0.000006	-0.000001	0.000000	0.000000
58.276300	20.730265	14.890998	0.470131	-0.491771	2.774275	0.000000	-0.076836	0.000000	-0.000007	-0.000001	0.000000	0.000000
58.825360	19.871682	15.727864	1.084344	-1.041406	2.709758	0.000000	-0.157830	0.000000	-0.000007	-0.000000	0.000000	0.000000
59.374420	18.376908	17.205243	1.621965	-1.665219	2.601474	0.000000	-0.236025	0.000000	-0.000007	-0.000000	0.000000	0.000000
59.923480	16.351524	19.428365	2.045019	-2.407641	2.451344	0.000000	-0.310033	0.000000	-0.000007	0.000000	0.000000	0.000000
60.369440	14.766260	21.404308	1.522292	-2.004419	2.328370	0.000000	-0.241756	0.000000	-0.000007	-0.000000	0.000000	0.000000
60.810400	13.626025	22.960552	1.073320	-1.511371	2.236212	0.000000	-0.176630	0.000000	-0.000007	-0.000000	0.000000	0.000000
61.251360	12.858708	24.049868	0.673385	-0.949557	2.172302	0.000000	-0.113515	0.000000	-0.000007	-0.000000	0.000000	0.000000
61.692320	12.429255	24.622692	0.304216	-0.344539	2.135912	0.000000	-0.051693	0.000000	-0.000008	-0.000001	0.000000	0.000000
62.134530	12.318095	24.652422	-0.020947	0.215642	2.126633	0.000000	0.004324	0.000000	-0.000008	-0.000001	0.000000	0.000000
62.431853	12.337731	24.527944	-0.045095	0.203021	2.127919	0.000000	0.004324	0.000000	-0.000008	-0.000001	0.000000	0.000000
62.765186	12.376819	24.397314	-0.072167	0.188871	2.129360	0.000000	0.004324	0.000000	-0.000008	-0.000001	0.000000	0.000000
63.098520	12.433954	24.276117	-0.099240	0.174721	2.130802	0.000000	0.004324	0.000000	-0.000009	-0.000001	0.000000	0.000000
63.433103	12.509454	24.163952	-0.126414	0.160517	2.132249	0.000000	0.004324	0.000000	-0.000009	-0.000001	0.000000	0.000000
63.730426	12.591805	24.072253	-0.119680	0.088858	2.133535	0.000000	-0.000908	0.000000	-0.000009	-0.000001	0.000000	0.000000
64.171386	12.857698	23.728776	-0.485596	0.687108	2.146673	0.000000	0.060552	0.000000	-0.000010	-0.000001	0.000000	0.000000
64.612346	13.454827	22.869513	-0.873698	1.254095	2.187039	0.000000	0.122703	0.000000	-0.000010	-0.000001	0.000000	0.000000
65.053306	14.410472	21.533561	-1.301717	1.764022	2.255093	0.000000	0.186251	0.000000	-0.000011	-0.000002	0.000000	0.000000
65.494266	15.768294	19.781704	-1.789207	2.193687	2.351610	0.000000	0.251920	0.000000	-0.000012	-0.000002	0.000000	0.000000
65.940226	17.613490	17.668858	-2.363133	2.524295	2.479261	0.000000	0.320860	0.000000	-0.000012	-0.000002	0.000000	0.000000
66.489286	19.978844	15.305228	-1.919375	1.805984	2.635071	0.000000	0.245855	0.000000	-0.000013	-0.000002	0.000000	0.000000
67.038346	21.779115	13.655546	-1.340042	1.216308	2.748440	0.000000	0.166490	0.000000	-0.000014	-0.000001	0.000000	0.000000
67.587406	22.887141	12.602310	-0.666055	0.713268	2.817356	0.000000	0.084171	0.000000	-0.000015	-0.000001	0.000000	0.000000
68.136466	23.224657	12.070500	0.054978	0.261032	2.840596	0.000000	0.000359	0.000000	-0.000015	-0.000000	0.000000	0.000000
68.435038	23.231906	11.903808	-0.018567	0.265721	2.842920	0.000000	0.007782	0.000000	-0.000015	-0.000000	0.000000	0.000000
68.768372	23.249068	11.736654	-0.032920	0.235742	2.845514	0.000000	0.007782	0.000000	-0.000015	-0.000000	0.000000	0.000000
69.101705	23.275800	11.589486	-0.047273	0.205762	2.848108	0.000000	0.007782	0.000000	-0.000016	-0.000000	0.000000	0.000000
69.436288	23.312254	11.461865	-0.061680	0.175670	2.850712	0.000000	0.007782	0.000000	-0.000016	-0.000000	0.000000	0.000000
69.733611	23.352738	11.365354	-0.135507	0.178629	2.853026	0.000000	0.015237	0.000000	-0.000016	-0.000000	0.000000	0.000000
70.282671	23.100473	11.396792	0.592237	-0.236224	2.838214	0.000000	-0.069114	0.000000	-0.000016	0.000000	0.000000	0.000000
