#ParticleID	Turn	x[m]	xp	y[m]	yp	z[m]	dE[GeV]# s	beta_x	beta_y	alpha_x	alpha_y	D_x	D_y	D_px	D_py	orbit_x	orbit_px	orbit_y	orbit_py
0.300000	11.809288	25.037293	-0.010535	-0.027081	2.618106	0.000000	0.000015	0.000000	-0.000001	0.000001	0.000000	0.000000
0.601250	11.823321	25.057237	-0.036047	-0.039122	2.618110	0.000000	0.000015	0.000000	-0.000000	0.000001	0.000000	0.000000
0.898573	11.852243	25.084034	-0.032162	-0.112518	2.618114	0.000000	-0.006405	0.000000	0.000000	0.000001	0.000000	0.000000
1.339533	12.032682	24.905006	-0.378586	0.516969	2.631583	0.000000	0.067552	0.000000	0.000001	0.000001	0.000000	0.000000
1.780493	12.525083	24.179112	-0.742306	1.122934	2.677802	0.000000	0.142279	0.000000	0.000001	0.000001	0.000000	0.000000
2.221453	13.351941	22.939380	-1.139940	1.677807	2.757297	0.000000	0.218626	0.000000	0.000002	0.000002	0.000000	0.000000
2.662413	14.551034	21.242215	-1.589654	2.156341	2.870976	0.000000	0.297463	0.000000	0.000003	0.000002	0.000000	0.000000
3.108373	16.197877	19.139950	-2.116283	2.537897	3.021993	0.000000	0.380178	0.000000	0.000004	0.000002	0.000000	0.000000
3.657433	18.309694	16.778768	-1.707189	1.787895	3.205461	0.000000	0.287140	0.000000	0.000004	0.000002	0.000000	0.000000
4.206493	19.902998	15.166834	-1.177508	1.165242	3.336370	0.000000	0.189008	0.000000	0.000005	0.000001	0.000000	0.000000
4.755553	20.865247	14.189332	-0.564654	0.625585	3.412398	0.000000	0.087525	0.000000	0.000006	0.000001	0.000000	0.000000
5.304613	21.128471	13.776638	0.088084	0.130488	3.432196	0.000000	-0.015511	0.000000	0.000007	0.000001	0.000000	0.000000
5.603185	21.113059	13.683874	0.018736	0.144209	3.430242	0.000000	-0.006544	0.000000	0.000007	0.000001	0.000000	0.000000
5.936519	21.105833	13.596024	0.002943	0.119343	3.428060	0.000000	-0.006544	0.000000	0.000007	0.000001	0.000000	0.000000
6.269852	21.109135	13.524751	-0.012851	0.094477	3.425879	0.000000	-0.006544	0.000000	0.000008	0.000001	0.000000	0.000000
6.604435	21.123039	13.469881	-0.028704	0.069517	3.423689	0.000000	-0.006544	0.000000	0.000008	0.000001	0.000000	0.000000
6.901758	21.144296	13.435137	-0.098033	0.082439	3.421743	0.000000	0.002396	0.000000	0.000008	0.000001	0.000000	0.000000
7.450818	20.891605	13.605502	0.555534	-0.394554	3.394856	0.000000	-0.100187	0.000000	0.000009	0.000001	0.000000	0.000000
7.999878	19.938618	14.311927	1.169862	-0.899649	3.312051	0.000000	-0.200992	0.000000	0.000009	0.000000	0.000000	0.000000
8.548938	18.352648	15.604731	1.701557	-1.468825	3.174797	0.000000	-0.298233	0.000000	0.000009	0.000000	0.000000	0.000000
9.097998	16.245721	17.575996	2.113062	-2.142622	2.985527	0.000000	-0.390183	0.000000	0.000009	-0.000000	0.000000	0.000000
9.543958	14.601963	19.332476	1.585930	-1.779379	2.829828	0.000000	-0.308475	0.000000	0.000009	0.000000	0.000000	0.000000
9.984918	13.406438	20.711662	1.135542	-1.336410	2.711049	0.000000	-0.230765	0.000000	0.000009	0.000000	0.000000	0.000000
10.425878	12.583828	21.671779	0.737033	-0.832636	2.625926	0.000000	-0.155682	0.000000	0.000010	0.000001	0.000000	0.000000
10.866838	12.096550	22.169140	0.372198	-0.290977	2.573489	0.000000	-0.082373	0.000000	0.000010	0.000001	0.000000	0.000000
11.309048	11.922208	22.180593	0.053496	0.209472	2.553121	0.000000	-0.016263	0.000000	0.000010	0.000001	0.000000	0.000000
11.606371	11.897833	22.060192	0.028486	0.195479	2.548285	0.000000	-0.016263	0.000000	0.000011	0.000001	0.000000	0.000000
12.086371	11.889867	21.883375	-0.011891	0.172889	2.540479	0.000000	-0.016263	0.000000	0.000011	0.000001	0.000000	0.000000
12.566371	11.920663	21.728245	-0.052267	0.150299	2.532672	0.000000	-0.016263	0.000000	0.000012	0.000001	0.000000	0.000000
13.046371	11.990219	21.594801	-0.092643	0.127709	2.524865	0.000000	-0.016263	0.000000	0.000012	0.000001	0.000000	0.000000
13.526371	12.098537	21.483044	-0.133019	0.105119	2.517059	0.000000	-0.016263	0.000000	0.000013	0.000001	0.000000	0.000000
14.007621	12.246050	21.392767	-0.173501	0.082470	2.509232	0.000000	-0.016263	0.000000	0.000013	0.000001	0.000000	0.000000
14.304943	12.356657	21.347888	-0.168212	0.016133	2.504396	0.000000	-0.022403	0.000000	0.000014	0.000001	0.000000	0.000000
14.745903	12.663512	21.100016	-0.530307	0.543846	2.510149	0.000000	0.048523	0.000000	0.000014	0.000001	0.000000	0.000000
15.186863	13.299143	20.395918	-0.916630	1.046815	2.547270	0.000000	0.120002	0.000000	0.000015	0.000002	0.000000	0.000000
15.627823	14.292589	19.267631	-1.344832	1.502155	2.616180	0.000000	0.192847	0.000000	0.000016	0.000002	0.000000	0.000000
16.068783	15.689238	17.766489	-1.834474	1.889148	2.717666	0.000000	0.267889	0.000000	0.000017	0.000003	0.000000	0.000000
16.514743	17.576557	15.939292	-2.412687	2.190930	2.854577	0.000000	0.346445	0.000000	0.000018	0.000003	0.000000	0.000000
17.063803	20.000611	13.899094	-1.976091	1.546805	3.021063	0.000000	0.259106	0.000000	0.000020	0.000002	0.000000	0.000000
17.612863	21.865279	12.501934	-1.399914	1.012855	3.138261	0.000000	0.167172	0.000000	0.000021	0.000002	0.000000	0.000000
18.161923	23.038852	11.648295	-0.724853	0.551049	3.204092	0.000000	0.072273	0.000000	0.000021	0.000001	0.000000	0.000000
18.710983	23.438433	11.277375	0.001407	0.128493	3.217388	0.000000	-0.023909	0.000000	0.000022	0.000000	0.000000	0.000000
19.009556	23.477972	11.191155	-0.072606	0.130818	3.212759	0.000000	-0.015504	0.000000	0.000022	0.000000	0.000000	0.000000
19.342889	23.531133	11.114042	-0.086878	0.100523	3.207591	0.000000	-0.015504	0.000000	0.000022	0.000000	0.000000	0.000000
19.676223	23.593810	11.057125	-0.101151	0.070227	3.202423	0.000000	-0.015504	0.000000	0.000022	0.000000	0.000000	0.000000
20.010806	23.666583	11.020169	-0.232734	0.094419	3.197255	0.000000	0.000337	0.000000	0.000023	0.000001	0.000000	0.000000
20.308129	23.808915	10.972116	-0.308174	0.095862	3.197355	0.000000	0.008690	0.000000	0.000023	0.000001	0.000000	0.000000
20.857189	23.736678	11.088875	0.438961	-0.309768	3.175904	0.000000	-0.086711	0.000000	0.000023	-0.000000	0.000000	0.000000
21.406249	22.856235	11.660493	1.155091	-0.737462	3.102419	0.000000	-0.180573	0.000000	0.000023	-0.000001	0.000000	0.000000
21.955309	21.229778	12.727686	1.789630	-1.217684	2.978202	0.000000	-0.271232	0.000000	0.000022	-0.000002	0.000000	0.000000
22.504369	18.972190	14.366468	2.297759	-1.784638	2.805458	0.000000	-0.357081	0.000000	0.000021	-0.000002	0.000000	0.000000
22.950329	17.192948	15.837851	1.706011	-1.500802	2.663510	0.000000	-0.279865	0.000000	0.000020	-0.000002	0.000000	0.000000
23.391289	15.917716	17.011008	1.196903	-1.149534	2.556425	0.000000	-0.206291	0.000000	0.000019	-0.000001	0.000000	0.000000
23.832249	15.065759	17.850040	0.742477	-0.745963	2.481235	0.000000	-0.135067	0.000000	0.000019	-0.000001	0.000000	0.000000
24.273209	14.598152	18.316770	0.321973	-0.308451	2.437082	0.000000	-0.065381	0.000000	0.000019	-0.000000	0.000000	0.000000
24.715418	14.493654	18.389720	-0.048371	0.097936	2.423462	0.000000	-0.002382	0.000000	0.000019	0.000000	0.000000	0.000000
25.012741	14.528531	18.336335	-0.068933	0.081613	2.422754	0.000000	-0.002382	0.000000	0.000019	0.000000	0.000000	0.000000
25.346075	14.582170	18.288026	-0.091985	0.063314	2.421960	0.000000	-0.002382	0.000000	0.000019	0.000000	0.000000	0.000000
25.679408	14.651177	18.251917	-0.115037	0.045014	2.421166	0.000000	-0.002382	0.000000	0.000019	0.000000	0.000000	0.000000
26.013991	14.735599	18.228311	-0.018631	-0.121232	2.420344	0.000000	-0.022017	0.000000	0.000019	0.000000	0.000000	0.000000
26.311314	14.752680	18.305322	-0.002644	-0.182665	2.413798	0.000000	-0.027935	0.000000	0.000019	-0.000000	0.000000	0.000000
26.752274	14.936762	18.267909	-0.416397	0.267186	2.416592	0.000000	0.040617	0.000000	0.000019	0.000000	0.000000	0.000000
27.193234	15.492719	17.837629	-0.849174	0.704880	2.449687	0.000000	0.109632	0.000000	0.000019	0.000001	0.000000	0.000000
27.634194	16.445952	17.034060	-1.320748	1.110503	2.513461	0.000000	0.179896	0.000000	0.000020	0.000001	0.000000	0.000000
28.075154	17.840012	15.893763	-1.852663	1.465598	2.608640	0.000000	0.252209	0.000000	0.000021	0.000002	0.000000	0.000000
28.521114	19.762805	14.451442	-2.474190	1.754922	2.737912	0.000000	0.327837	0.000000	0.000022	0.000003	0.000000	0.000000
29.070174	22.206684	12.844465	-1.950483	1.189132	2.895246	0.000000	0.244427	0.000000	0.000023	0.000002	0.000000	0.000000
29.619234	23.995950	11.808916	-1.289003	0.708041	3.005524	0.000000	0.156682	0.000000	0.000024	0.000001	0.000000	0.000000
30.168294	25.004216	11.271034	-0.536475	0.277383	3.066790	0.000000	0.066157	0.000000	0.000024	0.000000	0.000000	0.000000
30.717354	25.160264	11.192507	0.253948	-0.133518	3.077956	0.000000	-0.025541	0.000000	0.000024	-0.000000	0.000000	0.000000
31.015927	25.051536	11.262829	0.175935	-0.131246	3.072731	0.000000	-0.017501	0.000000	0.000024	-0.000000	0.000000	0.000000
31.349260	24.938819	11.360362	0.162217	-0.161352	3.066898	0.000000	-0.017501	0.000000	0.000024	-0.000000	0.000000	0.000000
31.682593	24.835247	11.477965	0.148499	-0.191458	3.061064	0.000000	-0.017501	0.000000	0.000024	-0.000000	0.000000	0.000000
32.017177	24.740483	11.616193	0.134730	-0.221676	3.055209	0.000000	-0.017501	0.000000	0.000024	-0.000000	0.000000	0.000000
32.314499	24.664004	11.755996	0.058064	-0.217820	3.050006	0.000000	-0.009533	0.000000	0.000023	-0.000000	0.000000	0.000000
32.863559	24.177651	12.234376	0.822484	-0.658594	3.019886	0.000000	-0.100019	0.000000	0.000023	-0.000001	0.000000	0.000000
33.412619	22.878962	13.219544	1.528807	-1.146279	2.940500	0.000000	-0.188730	0.000000	0.000022	-0.000002	0.000000	0.000000
33.961679	20.859671	14.781672	2.127143	-1.715610	2.813254	0.000000	-0.274094	0.000000	0.000021	-0.000003	0.000000	0.000000
34.510739	18.262411	17.032028	2.575228	-2.407141	2.640407	0.000000	-0.354596	0.000000	0.000019	-0.000003	0.000000	0.000000
34.956699	16.242902	19.044907	1.969447	-2.087601	2.498616	0.000000	-0.281660	0.000000	0.000018	-0.000003	0.000000	0.000000
35.397659	14.736955	20.709881	1.458662	-1.673821	2.389799	0.000000	-0.212359	0.000000	0.000017	-0.000002	0.000000	0.000000
35.838619	13.650503	21.974828	1.014518	-1.183884	2.310979	0.000000	-0.145478	0.000000	0.000016	-0.000002	0.000000	0.000000
36.279579	12.933908	22.782196	0.616725	-0.640081	2.261258	0.000000	-0.080253	0.000000	0.000015	-0.000001	0.000000	0.000000
36.721789	12.553736	23.095559	0.277784	-0.123837	2.240043	0.000000	-0.021434	0.000000	0.000015	-0.000001	0.000000	0.000000
37.019112	12.396138	23.173085	0.252273	-0.136908	2.233670	0.000000	-0.021434	0.000000	0.000015	-0.000001	0.000000	0.000000
37.352445	12.237490	23.269242	0.223671	-0.151562	2.226526	0.000000	-0.021434	0.000000	0.000014	-0.000001	0.000000	0.000000
37.685779	12.097910	23.375168	0.195070	-0.166217	2.219381	0.000000	-0.021434	0.000000	0.000014	-0.000001	0.000000	0.000000
38.020362	11.976981	23.491316	0.166361	-0.180926	2.212210	0.000000	-0.021434	0.000000	0.000013	-0.000001	0.000000	0.000000
38.317684	11.885640	23.602789	0.169993	-0.251871	2.205838	0.000000	-0.026843	0.000000	0.000013	-0.000001	0.000000	0.000000
38.758644	11.887232	23.563481	-0.173617	0.340672	2.207930	0.000000	0.036339	0.000000	0.000013	-0.000001	0.000000	0.000000
39.199604	12.194200	23.006463	-0.525159	0.917715	2.237947	0.000000	0.099936	0.000000	0.000013	-0.000000	0.000000	0.000000
39.640564	12.820568	21.957078	-0.900695	1.453003	2.296232	0.000000	0.164670	0.000000	0.000012	-0.000000	0.000000	0.000000
40.081524	13.794954	20.463072	-1.317380	1.922180	2.383448	0.000000	0.231280	0.000000	0.000012	0.000000	0.000000	0.000000
40.527484	15.179452	18.569846	-1.798081	2.305185	2.502061	0.000000	0.300929	0.000000	0.000013	0.000001	0.000000	0.000000
41.076544	16.946166	16.442297	-1.400577	1.592581	2.646757	0.000000	0.225366	0.000000	0.000013	0.000000	0.000000	0.000000
41.625604	18.219131	15.030762	-0.904143	0.993414	2.748805	0.000000	0.145805	0.000000	0.000013	-0.000000	0.000000	0.000000
42.174664	18.908432	14.234702	-0.343845	0.465005	2.806394	0.000000	0.063658	0.000000	0.000012	-0.000001	0.000000	0.000000
42.723724	18.965380	13.997413	0.240740	-0.030282	2.818502	0.000000	-0.019619	0.000000	0.000012	-0.000001	0.000000	0.000000
43.022297	18.856083	14.000028	0.174874	-0.015045	2.814843	0.000000	-0.012255	0.000000	0.000012	-0.000001	0.000000	0.000000
43.502297	18.700797	14.030932	0.148639	-0.049338	2.808961	0.000000	-0.012255	0.000000	0.000011	-0.000001	0.000000	0.000000
43.982297	18.570696	14.094757	0.122405	-0.083632	2.803079	0.000000	-0.012255	0.000000	0.000011	-0.000001	0.000000	0.000000
44.462297	18.465780	14.191505	0.096170	-0.117925	2.797197	0.000000	-0.012255	0.000000	0.000010	-0.000001	0.000000	0.000000
44.942297	18.386049	14.321173	0.069936	-0.152218	2.791315	0.000000	-0.012255	0.000000	0.000010	-0.000001	0.000000	0.000000
45.423547	18.331621	14.484051	-0.047192	-0.114838	2.785435	0.000000	0.001545	0.000000	0.000009	-0.000001	0.000000	0.000000
45.720870	18.364517	14.558522	-0.111427	-0.097601	2.785895	0.000000	0.008824	0.000000	0.000009	-0.000001	0.000000	0.000000
46.269930	18.177658	14.947239	0.449736	-0.614545	2.768168	0.000000	-0.073305	0.000000	0.000008	-0.000001	0.000000	0.000000
46.818990	17.388451	15.924184	0.979132	-1.175262	2.705638	0.000000	-0.154133	0.000000	0.000007	-0.000002	0.000000	0.000000
47.368050	16.052642	17.558943	1.439367	-1.819691	2.599414	0.000000	-0.232228	0.000000	0.000006	-0.000002	0.000000	0.000000
47.917110	14.264585	19.967957	1.797932	-2.593731	2.451382	0.000000	-0.306204	0.000000	0.000005	-0.000002	0.000000	0.000000
48.363070	12.873180	22.109731	1.333145	-2.188693	2.330120	0.000000	-0.237903	0.000000	0.000005	-0.000002	0.000000	0.000000
48.804030	11.877662	23.824552	0.933035	-1.685345	2.239675	0.000000	-0.172710	0.000000	0.000004	-0.000002	0.000000	0.000000
49.244990	11.214949	25.059822	0.575553	-1.105316	2.177517	0.000000	-0.109483	0.000000	0.000003	-0.000002	0.000000	0.000000
49.685950	10.854763	25.759338	0.244366	-0.474995	2.142938	0.000000	-0.047504	0.000000	0.000002	-0.000002	0.000000	0.000000
50.128160	10.780773	25.890988	-0.049335	0.113397	2.135555	0.000000	0.008698	0.000000	0.000002	-0.000001	0.000000	0.000000
50.425482	10.818330	25.827016	-0.076981	0.101765	2.138142	0.000000	0.008698	0.000000	0.000001	-0.000001	0.000000	0.000000
50.758816	10.879982	25.763519	-0.107976	0.088725	2.141042	0.000000	0.008698	0.000000	0.000001	-0.000001	0.000000	0.000000
51.092149	10.962297	25.708715	-0.138970	0.075685	2.143941	0.000000	0.008698	0.000000	0.000000	-0.000001	0.000000	0.000000
51.426732	11.065476	25.662969	-0.080311	-0.145594	2.146830	0.000000	-0.008719	0.000000	-0.000000	-0.000001	0.000000	0.000000
51.724055	11.121273	25.753064	-0.080081	-0.220580	2.144239	0.000000	-0.013977	0.000000	-0.000001	-0.000001	0.000000	0.000000
52.165015	11.337122	25.661071	-0.411275	0.428405	2.151664	0.000000	0.047686	0.000000	-0.000001	-0.000002	0.000000	0.000000
52.605975	11.852208	25.003168	-0.761259	1.057898	2.186375	0.000000	0.109892	0.000000	-0.000002	-0.000002	0.000000	0.000000
53.046935	12.690064	23.809287	-1.146022	1.639257	2.248765	0.000000	0.173350	0.000000	-0.000003	-0.000002	0.000000	0.000000
53.487895	13.888968	22.133750	-1.583145	2.146032	2.339547	0.000000	0.238782	0.000000	-0.000003	-0.000002	0.000000	0.000000
53.933855	15.524251	20.027741	-2.096822	2.556502	2.461257	0.000000	0.307333	0.000000	-0.000004	-0.000002	0.000000	0.000000
54.482915	17.629660	17.657905	-1.715050	1.785146	2.609822	0.000000	0.233029	0.000000	-0.000005	-0.000002	0.000000	0.000000
55.031975	19.246432	16.060736	-1.212136	1.140941	2.716393	0.000000	0.154591	0.000000	-0.000006	-0.000001	0.000000	0.000000
55.581035	20.260364	15.122470	-0.623603	0.578003	2.779079	0.000000	0.073412	0.000000	-0.000007	-0.000001	0.000000	0.000000
56.130095	20.599838	14.776279	0.008979	0.056235	2.796770	0.000000	-0.009070	0.000000	-0.000007	-0.000001	0.000000	0.000000
56.428668	20.630955	14.725730	-0.059371	0.074457	2.796244	0.000000	-0.001762	0.000000	-0.000008	-0.000001	0.000000	0.000000
56.762001	20.675940	14.683679	-0.075585	0.051696	2.795657	0.000000	-0.001762	0.000000	-0.000008	-0.000001	0.000000	0.000000
57.095334	20.731735	14.656802	-0.091799	0.028934	2.795070	0.000000	-0.001762	0.000000	-0.000008	-0.000001	0.000000	0.000000
57.429918	20.798609	14.645085	-0.108073	0.006087	2.794481	0.000000	-0.001762	0.000000	-0.000009	-0.000001	0.000000	0.000000
57.727240	20.867174	14.647501	-0.177062	0.024058	2.793957	0.000000	0.005539	0.000000	-0.000009	-0.000001	0.000000	0.000000
58.276300	20.705637	14.902312	0.469527	-0.490882	2.774360	0.000000	-0.076821	0.000000	-0.000009	-0.000001	0.000000	0.000000
58.825360	19.848156	15.738355	1.082952	-1.040788	2.709849	0.000000	-0.157818	0.000000	-0.000010	-0.000000	0.000000	0.000000
59.374420	18.355302	17.215182	1.619882	-1.664826	2.601571	0.000000	-0.236016	0.000000	-0.000010	-0.000000	0.000000	0.000000
59.923480	16.332520	19.437983	2.042391	-2.407446	2.451445	0.000000	-0.310027	0.000000	-0.000010	0.000000	0.000000	0.000000
60.369440	14.749340	21.413599	1.520231	-2.003882	2.328474	0.000000	-0.241748	0.000000	-0.000010	-0.000000	0.000000	0.000000
60.810400	13.610710	22.969228	1.071726	-1.510519	2.236321	0.000000	-0.176619	0.000000	-0.000010	-0.000000	0.000000	0.000000
61.251360	12.844621	24.057668	0.672186	-0.948429	2.172416	0.000000	-0.113501	0.000000	-0.000010	-0.000001	0.000000	0.000000
61.692320	12.416072	24.629393	0.303356	-0.343185	2.136033	0.000000	-0.051677	0.000000	-0.000011	-0.000001	0.000000	0.000000
62.134530	12.305537	24.657849	-0.021537	0.217144	2.126761	0.000000	0.004344	0.000000	-0.000011	-0.000001	0.000000	0.000000
62.431853	12.325531	24.532480	-0.045710	0.204517	2.128053	0.000000	0.004344	0.000000	-0.000011	-0.000001	0.000000	0.000000
62.765186	12.365038	24.400853	-0.072810	0.190362	2.129501	0.000000	0.004344	0.000000	-0.000012	-0.000001	0.000000	0.000000
63.098520	12.422612	24.278664	-0.099911	0.176206	2.130950	0.000000	0.004344	0.000000	-0.000012	-0.000001	0.000000	0.000000
63.433103	12.498570	24.165507	-0.127113	0.161997	2.132403	0.000000	0.004344	0.000000	-0.000012	-0.000001	0.000000	0.000000
63.730426	12.581345	24.072930	-0.120429	0.090329	2.133695	0.000000	-0.000889	0.000000	-0.000013	-0.000001	0.000000	0.000000
64.171386	12.847801	23.728160	-0.486127	0.688559	2.146843	0.000000	0.060575	0.000000	-0.000013	-0.000001	0.000000	0.000000
64.612346	13.445311	22.867652	-0.874034	1.255459	2.187220	0.000000	0.122730	0.000000	-0.000014	-0.000002	0.000000	0.000000
65.053306	14.401172	21.530557	-1.301874	1.765237	2.255287	0.000000	0.186283	0.000000	-0.000015	-0.000002	0.000000	0.000000
65.494266	15.759057	19.777714	-1.789192	2.194699	2.351820	0.000000	0.251958	0.000000	-0.000016	-0.000003	0.000000	0.000000
65.940226	17.604162	17.664076	-2.362944	2.525055	2.479489	0.000000	0.320903	0.000000	-0.000017	-0.000003	0.000000	0.000000
66.489286	19.969520	15.299616	-1.919571	1.806743	2.635322	0.000000	0.245891	0.000000	-0.000019	-0.000002	0.000000	0.000000
67.038346	21.770214	13.649076	-1.340610	1.217122	2.748708	0.000000	0.166517	0.000000	-0.000020	-0.000002	0.000000	0.000000
67.587406	22.879050	12.594892	-0.666954	0.714193	2.817637	0.000000	0.084189	0.000000	-0.000020	-0.000001	0.000000	0.000000
68.136466	23.217706	12.061975	0.053812	0.262134	2.840885	0.000000	0.000368	0.000000	-0.000021	-0.000000	0.000000	0.000000
68.435038	23.225644	11.894648	-0.019723	0.266768	2.843211	0.000000	0.007792	0.000000	-0.000021	-0.000000	0.000000	0.000000
68.768372	23.243578	11.726809	-0.034080	0.236750	2.845809	0.000000	0.007792	0.000000	-0.000021	-0.000000	0.000000	0.000000
69.101705	23.271084	11.578982	-0.048438	0.206732	2.848407	0.000000	0.007792	0.000000	-0.000021	-0.000000	0.000000	0.000000
69.436288	23.308319	11.450725	-0.062849	0.176601	2.851014	0.000000	0.007792	0.000000	-0.000022	-0.000000	0.000000	0.000000
69.733611	23.349499	11.353671	-0.136675	0.179496	2.853331	0.000000	0.015249	0.000000	-0.000022	-0.000001	0.000000	0.000000
70.282671	23.098564	11.383973	0.590997	-0.235012	2.838522	0.000000	-0.069112	0.000000	-0.000022	0.000000	0.000000	0.000000
