#ParticleID	Turn	x[m]	xp	y[m]	yp	z[m]	dE[GeV]# s	beta_x	beta_y	alpha_x	alpha_y	D_x	D_y	D_px	D_py	orbit_x	orbit_px	orbit_y	orbit_py
0.300000	11.820740	24.990349	-0.011837	-0.027542	2.618071	0.000000	0.000029	0.000000	0.000001	0.000001	0.000000	0.000000
0.601250	11.835550	25.010578	-0.037325	-0.039606	2.618079	0.000000	0.000029	0.000000	0.000001	0.000001	0.000000	0.000000
0.898573	11.865225	25.037670	-0.033384	-0.112912	2.618087	0.000000	-0.006392	0.000000	0.000001	0.000001	0.000000	0.000000
1.339533	12.046881	24.859529	-0.380135	0.515359	2.631562	0.000000	0.067565	0.000000	0.000001	0.000001	0.000000	0.000000
1.780493	12.540818	24.135566	-0.744254	1.120181	2.677787	0.000000	0.142291	0.000000	0.000001	0.000001	0.000000	0.000000
2.221453	13.369602	22.898722	-1.142375	1.674035	2.757289	0.000000	0.218638	0.000000	0.000002	0.000001	0.000000	0.000000
2.662413	14.571097	21.205272	-1.592688	2.151723	2.870973	0.000000	0.297475	0.000000	0.000002	0.000001	0.000000	0.000000
3.108373	16.220965	19.107429	-2.120060	2.532640	3.021995	0.000000	0.380190	0.000000	0.000002	0.000001	0.000000	0.000000
3.657433	18.336625	16.751286	-1.710369	1.783920	3.205470	0.000000	0.287151	0.000000	0.000003	0.000001	0.000000	0.000000
4.206493	19.932987	15.143147	-1.179866	1.162264	3.336386	0.000000	0.189020	0.000000	0.000003	0.000001	0.000000	0.000000
4.755553	20.897293	14.168466	-0.566023	0.623394	3.412420	0.000000	0.087536	0.000000	0.000003	0.000000	0.000000	0.000000
5.304613	21.161429	13.757821	0.087801	0.128927	3.432225	0.000000	-0.015501	0.000000	0.000004	0.000000	0.000000	0.000000
5.603185	21.146231	13.666024	0.018388	0.142580	3.430274	0.000000	-0.006534	0.000000	0.000004	0.000000	0.000000	0.000000
5.936519	21.139229	13.579267	0.002619	0.117693	3.428096	0.000000	-0.006534	0.000000	0.000004	0.000000	0.000000	0.000000
6.269852	21.142739	13.509100	-0.013149	0.092806	3.425918	0.000000	-0.006534	0.000000	0.000004	0.000000	0.000000	0.000000
6.604435	21.156834	13.455356	-0.028977	0.067825	3.423732	0.000000	-0.006534	0.000000	0.000004	0.000000	0.000000	0.000000
6.901758	21.178247	13.421624	-0.098375	0.080694	3.421789	0.000000	0.002406	0.000000	0.000004	0.000000	0.000000	0.000000
7.450818	20.925305	13.593703	0.556330	-0.395950	3.394908	0.000000	-0.100178	0.000000	0.000004	0.000000	0.000000	0.000000
7.999878	19.970841	14.301517	1.171739	-0.900797	3.312108	0.000000	-0.200985	0.000000	0.000005	0.000000	0.000000	0.000000
8.548938	18.382275	15.595482	1.704382	-1.469805	3.174857	0.000000	-0.298227	0.000000	0.000005	-0.000000	0.000000	0.000000
9.097998	16.271813	17.567764	2.116636	-2.143504	2.985590	0.000000	-0.390180	0.000000	0.000005	-0.000000	0.000000	0.000000
9.543958	14.625223	19.325192	1.588730	-1.780615	2.829893	0.000000	-0.308470	0.000000	0.000004	-0.000000	0.000000	0.000000
9.984918	13.427519	20.705604	1.137701	-1.337941	2.711117	0.000000	-0.230758	0.000000	0.000004	0.000000	0.000000	0.000000
10.425878	12.603250	21.667174	0.738650	-0.834391	2.625997	0.000000	-0.155674	0.000000	0.000005	0.000000	0.000000	0.000000
10.866838	12.114757	22.166153	0.373346	-0.292877	2.573565	0.000000	-0.082363	0.000000	0.000005	0.000000	0.000000	0.000000
11.309048	11.939587	22.179319	0.054273	0.207514	2.553202	0.000000	-0.016251	0.000000	0.000005	0.000000	0.000000	0.000000
11.606371	11.914740	22.060079	0.029297	0.193531	2.548370	0.000000	-0.016251	0.000000	0.000005	0.000000	0.000000	0.000000
12.086371	11.905968	21.885125	-0.011023	0.170958	2.540569	0.000000	-0.016251	0.000000	0.000005	0.000000	0.000000	0.000000
12.566371	11.935905	21.731841	-0.051344	0.148384	2.532769	0.000000	-0.016251	0.000000	0.000005	0.000000	0.000000	0.000000
13.046371	12.004549	21.600228	-0.091665	0.125810	2.524968	0.000000	-0.016251	0.000000	0.000005	0.000000	0.000000	0.000000
13.526371	12.111901	21.490285	-0.131986	0.103236	2.517168	0.000000	-0.016251	0.000000	0.000006	0.000000	0.000000	0.000000
14.007621	12.258393	21.401812	-0.172412	0.080604	2.509347	0.000000	-0.016251	0.000000	0.000006	0.000000	0.000000	0.000000
14.304943	12.368342	21.358039	-0.167058	0.014248	2.504515	0.000000	-0.022392	0.000000	0.000006	0.000000	0.000000	0.000000
14.745903	12.674284	21.111696	-0.529382	0.542276	2.510274	0.000000	0.048537	0.000000	0.000006	0.000001	0.000000	0.000000
15.186863	13.309183	20.408818	-0.915891	1.045631	2.547402	0.000000	0.120019	0.000000	0.000006	0.000001	0.000000	0.000000
15.627823	14.302046	19.281383	-1.344245	1.501411	2.616321	0.000000	0.192869	0.000000	0.000007	0.000001	0.000000	0.000000
16.068783	15.698234	17.780691	-1.834013	1.888878	2.717818	0.000000	0.267914	0.000000	0.000007	0.000001	0.000000	0.000000
16.514743	17.585190	15.953517	-2.412330	2.191149	2.854742	0.000000	0.346474	0.000000	0.000008	0.000001	0.000000	0.000000
17.063803	20.008617	13.913248	-1.975314	1.546715	3.021243	0.000000	0.259130	0.000000	0.000008	0.000001	0.000000	0.000000
17.612863	21.872225	12.516359	-1.398772	1.012449	3.138453	0.000000	0.167190	0.000000	0.000009	0.000001	0.000000	0.000000
18.161923	23.044379	11.663352	-0.723428	0.550299	3.204292	0.000000	0.072284	0.000000	0.000009	0.000000	0.000000	0.000000
18.710983	23.442284	11.293468	0.003016	0.127345	3.217593	0.000000	-0.023904	0.000000	0.000009	0.000000	0.000000	0.000000
19.009556	23.480871	11.207894	-0.071009	0.129762	3.212966	0.000000	-0.015498	0.000000	0.000009	0.000000	0.000000	0.000000
19.342889	23.532966	11.131466	-0.085277	0.099520	3.207800	0.000000	-0.015498	0.000000	0.000009	0.000000	0.000000	0.000000
19.676223	23.594573	11.075200	-0.099544	0.069278	3.202634	0.000000	-0.015498	0.000000	0.000009	0.000000	0.000000	0.000000
20.010806	23.666270	11.038861	-0.231121	0.093617	3.197468	0.000000	0.000344	0.000000	0.000009	0.000000	0.000000	0.000000
20.308129	23.807640	10.991271	-0.306555	0.095162	3.197570	0.000000	0.008698	0.000000	0.000010	0.000000	0.000000	0.000000
20.857189	23.733656	11.109095	0.440503	-0.311021	3.176122	0.000000	-0.086709	0.000000	0.000010	-0.000000	0.000000	0.000000
21.406249	22.851613	11.682432	1.156447	-0.739358	3.102636	0.000000	-0.180578	0.000000	0.000009	-0.000000	0.000000	0.000000
21.955309	21.223813	12.752120	1.790705	-1.220358	2.978414	0.000000	-0.271245	0.000000	0.000009	-0.000001	0.000000	0.000000
22.504369	18.965236	14.394351	2.298477	-1.788282	2.805661	0.000000	-0.357100	0.000000	0.000009	-0.000001	0.000000	0.000000
22.950329	17.185328	15.868704	1.706795	-1.503791	2.663705	0.000000	-0.279879	0.000000	0.000008	-0.000001	0.000000	0.000000
23.391289	15.909363	17.044158	1.197789	-1.151735	2.556615	0.000000	-0.206300	0.000000	0.000008	-0.000001	0.000000	0.000000
23.832249	15.056565	17.884745	0.743506	-0.747276	2.481421	0.000000	-0.135071	0.000000	0.000008	-0.000000	0.000000	0.000000
24.273209	14.587971	18.352218	0.323192	-0.308817	2.437268	0.000000	-0.065380	0.000000	0.000008	-0.000000	0.000000	0.000000
24.715418	14.482291	18.425063	-0.046931	0.098444	2.423649	0.000000	-0.002377	0.000000	0.000008	0.000000	0.000000	0.000000
25.012741	14.516316	18.371368	-0.067507	0.082151	2.422942	0.000000	-0.002377	0.000000	0.000008	0.000000	0.000000	0.000000
25.346075	14.569010	18.322690	-0.090574	0.063884	2.422149	0.000000	-0.002377	0.000000	0.000008	0.000000	0.000000	0.000000
25.679408	14.637081	18.286189	-0.113641	0.045618	2.421357	0.000000	-0.002377	0.000000	0.000008	0.000000	0.000000	0.000000
26.013991	14.720575	18.262168	-0.017372	-0.120869	2.420537	0.000000	-0.022014	0.000000	0.000008	-0.000000	0.000000	0.000000
26.311314	14.736912	18.338954	-0.001439	-0.182357	2.413992	0.000000	-0.027934	0.000000	0.000008	-0.000000	0.000000	0.000000
26.752274	14.919757	18.300868	-0.414787	0.268399	2.416787	0.000000	0.040624	0.000000	0.000008	0.000000	0.000000	0.000000
27.193234	15.474089	17.869139	-0.847085	0.706943	2.449886	0.000000	0.109644	0.000000	0.000008	0.000000	0.000000	0.000000
27.634194	16.425234	17.063409	-1.318084	1.113321	2.513667	0.000000	0.179913	0.000000	0.000008	0.000001	0.000000	0.000000
28.075154	17.816646	15.920339	-1.849302	1.469045	2.608855	0.000000	0.252231	0.000000	0.000008	0.000001	0.000000	0.000000
28.521114	19.736071	14.474720	-2.469973	1.758841	2.738139	0.000000	0.327865	0.000000	0.000009	0.000001	0.000000	0.000000
29.070174	22.175674	12.863954	-1.946961	1.192155	2.895487	0.000000	0.244448	0.000000	0.000009	0.000001	0.000000	0.000000
29.619234	23.961570	11.825476	-1.286425	0.710383	3.005775	0.000000	0.156694	0.000000	0.000009	0.000000	0.000000	0.000000
30.168294	24.967610	11.285318	-0.535023	0.279211	3.067045	0.000000	0.066161	0.000000	0.000009	0.000000	0.000000	0.000000
30.717354	25.122733	11.205005	0.254170	-0.132074	3.078212	0.000000	-0.025545	0.000000	0.000009	-0.000000	0.000000	0.000000
31.015927	25.013825	11.274431	0.176227	-0.129727	3.072986	0.000000	-0.017503	0.000000	0.000009	-0.000000	0.000000	0.000000
31.349260	24.900920	11.370937	0.162488	-0.159790	3.067152	0.000000	-0.017503	0.000000	0.000009	-0.000000	0.000000	0.000000
31.682593	24.797175	11.487485	0.148748	-0.189853	3.061318	0.000000	-0.017503	0.000000	0.000009	-0.000000	0.000000	0.000000
32.017177	24.702252	11.624625	0.134956	-0.220029	3.055461	0.000000	-0.017503	0.000000	0.000009	-0.000000	0.000000	0.000000
32.314499	24.625645	11.763437	0.058364	-0.216111	3.050257	0.000000	-0.009534	0.000000	0.000009	-0.000000	0.000000	0.000000
32.863559	24.139664	12.240015	0.821511	-0.657001	3.020135	0.000000	-0.100028	0.000000	0.000009	-0.000000	0.000000	0.000000
33.412619	22.842716	13.223445	1.526631	-1.144688	2.940741	0.000000	-0.188747	0.000000	0.000009	-0.000001	0.000000	0.000000
33.961679	20.826410	14.783775	2.123917	-1.713908	2.813484	0.000000	-0.274118	0.000000	0.000008	-0.000001	0.000000	0.000000
34.510739	18.233169	17.032145	2.571180	-2.405206	2.640620	0.000000	-0.354628	0.000000	0.000007	-0.000001	0.000000	0.000000
34.956699	16.216866	19.043202	1.966283	-2.085465	2.498816	0.000000	-0.281686	0.000000	0.000007	-0.000001	0.000000	0.000000
35.397659	14.713379	20.706239	1.456229	-1.671584	2.389988	0.000000	-0.212381	0.000000	0.000006	-0.000001	0.000000	0.000000
35.838619	13.628791	21.969206	1.012706	-1.181647	2.311159	0.000000	-0.145494	0.000000	0.000006	-0.000001	0.000000	0.000000
36.279579	12.913553	22.774639	0.615451	-0.637946	2.261431	0.000000	-0.080264	0.000000	0.000006	-0.000001	0.000000	0.000000
36.721789	12.534293	23.086196	0.276944	-0.121884	2.240212	0.000000	-0.021442	0.000000	0.000006	-0.000000	0.000000	0.000000
37.019112	12.377203	23.162560	0.251404	-0.134955	2.233837	0.000000	-0.021442	0.000000	0.000005	-0.000000	0.000000	0.000000
37.352445	12.219144	23.257414	0.222771	-0.149608	2.226689	0.000000	-0.021442	0.000000	0.000005	-0.000000	0.000000	0.000000
37.685779	12.080175	23.362037	0.194137	-0.164261	2.219542	0.000000	-0.021442	0.000000	0.000005	-0.000000	0.000000	0.000000
38.020362	11.959881	23.476876	0.165397	-0.178969	2.212368	0.000000	-0.021442	0.000000	0.000005	-0.000000	0.000000	0.000000
38.317684	11.869123	23.587185	0.168962	-0.249879	2.205993	0.000000	-0.026852	0.000000	0.000005	-0.000000	0.000000	0.000000
38.758644	11.871460	23.546309	-0.174283	0.342223	2.208081	0.000000	0.036334	0.000000	0.000005	-0.000000	0.000000	0.000000
39.199604	12.178866	22.988145	-0.525490	0.918755	2.238098	0.000000	0.099934	0.000000	0.000004	-0.000000	0.000000	0.000000
39.640564	12.805384	21.938087	-0.900705	1.453483	2.296383	0.000000	0.164673	0.000000	0.000004	-0.000000	0.000000	0.000000
40.081524	13.779639	20.443912	-1.317071	1.922080	2.383601	0.000000	0.231286	0.000000	0.000004	-0.000000	0.000000	0.000000
40.527484	15.163713	18.551037	-1.797436	2.304505	2.502217	0.000000	0.300940	0.000000	0.000004	0.000000	0.000000	0.000000
41.076544	16.930046	16.423962	-1.400533	1.592393	2.646918	0.000000	0.225371	0.000000	0.000004	-0.000000	0.000000	0.000000
41.625604	18.203295	15.012372	-0.904702	0.993704	2.748967	0.000000	0.145805	0.000000	0.000004	-0.000000	0.000000	0.000000
42.174664	18.893526	14.215722	-0.344968	0.465794	2.806555	0.000000	0.063652	0.000000	0.000004	-0.000000	0.000000	0.000000
42.723724	18.951982	13.977269	0.239132	-0.028938	2.818659	0.000000	-0.019629	0.000000	0.000004	-0.000000	0.000000	0.000000
43.022297	18.843626	13.979121	0.173295	-0.013782	2.814997	0.000000	-0.012265	0.000000	0.000004	-0.000000	0.000000	0.000000
43.502297	18.689857	14.008836	0.147058	-0.048125	2.809110	0.000000	-0.012265	0.000000	0.000004	-0.000000	0.000000	0.000000
43.982297	18.561276	14.071521	0.120820	-0.082469	2.803223	0.000000	-0.012265	0.000000	0.000003	-0.000000	0.000000	0.000000
44.462297	18.457883	14.167176	0.094582	-0.116812	2.797337	0.000000	-0.012265	0.000000	0.000003	-0.000000	0.000000	0.000000
44.942297	18.379678	14.295800	0.068344	-0.151155	2.791450	0.000000	-0.012265	0.000000	0.000003	-0.000000	0.000000	0.000000
45.423547	18.326783	14.457679	-0.048763	-0.113956	2.785565	0.000000	0.001537	0.000000	0.000003	-0.000000	0.000000	0.000000
45.720870	18.360615	14.531636	-0.112997	-0.096821	2.786022	0.000000	0.008816	0.000000	0.000003	-0.000000	0.000000	0.000000
46.269930	18.175538	14.919043	0.448080	-0.612926	2.768289	0.000000	-0.073317	0.000000	0.000002	-0.000001	0.000000	0.000000
46.818990	17.388144	15.893698	0.977507	-1.172688	2.705751	0.000000	-0.154149	0.000000	0.000002	-0.000001	0.000000	0.000000
47.368050	16.054050	17.525026	1.437888	-1.815978	2.599517	0.000000	-0.232247	0.000000	0.000002	-0.000001	0.000000	0.000000
47.917110	14.267490	19.929221	1.796703	-2.588616	2.451473	0.000000	-0.306226	0.000000	0.000001	-0.000001	0.000000	0.000000
48.363070	12.877150	22.066800	1.331977	-2.184442	2.330201	0.000000	-0.237923	0.000000	0.000001	-0.000001	0.000000	0.000000
48.804030	11.882654	23.778325	0.931875	-1.682148	2.239747	0.000000	-0.172728	0.000000	0.000001	-0.000001	0.000000	0.000000
49.244990	11.220981	25.011296	0.574347	-1.103319	2.177581	0.000000	-0.109500	0.000000	0.000001	-0.000001	0.000000	0.000000
49.685950	10.861900	25.709616	0.243059	-0.474289	2.142995	0.000000	-0.047519	0.000000	0.000000	-0.000001	0.000000	0.000000
50.128160	10.789133	25.841227	-0.050782	0.112901	2.135606	0.000000	0.008684	0.000000	-0.000000	-0.000001	0.000000	0.000000
50.425482	10.827545	25.777556	-0.078411	0.101249	2.138188	0.000000	0.008684	0.000000	-0.000000	-0.000001	0.000000	0.000000
50.758816	10.890144	25.714411	-0.109386	0.088185	2.141083	0.000000	0.008684	0.000000	-0.000000	-0.000001	0.000000	0.000000
51.092149	10.973393	25.659976	-0.140361	0.075121	2.143977	0.000000	0.008684	0.000000	-0.000001	-0.000001	0.000000	0.000000
51.426732	11.077496	25.614614	-0.081584	-0.145790	2.146861	0.000000	-0.008733	0.000000	-0.000001	-0.000001	0.000000	0.000000
51.724055	11.134043	25.704832	-0.081299	-0.220681	2.144265	0.000000	-0.013991	0.000000	-0.000001	-0.000001	0.000000	0.000000
52.165015	11.351103	25.613491	-0.412815	0.427033	2.151685	0.000000	0.047673	0.000000	-0.000001	-0.000001	0.000000	0.000000
52.605975	11.867715	24.957337	-0.763191	1.055317	2.186389	0.000000	0.109879	0.000000	-0.000002	-0.000001	0.000000	0.000000
53.046935	12.707479	23.766224	-1.148434	1.635585	2.248773	0.000000	0.173337	0.000000	-0.000002	-0.000001	0.000000	0.000000
53.487895	13.908763	22.094347	-1.586147	2.141436	2.339549	0.000000	0.238770	0.000000	-0.000002	-0.000001	0.000000	0.000000
53.933855	15.547040	19.992776	-2.100559	2.551188	2.461253	0.000000	0.307320	0.000000	-0.000003	-0.000001	0.000000	0.000000
54.482915	17.656251	17.628009	-1.718197	1.781172	2.609811	0.000000	0.233016	0.000000	-0.000003	-0.000001	0.000000	0.000000
55.031975	19.276050	16.034601	-1.214471	1.138024	2.716374	0.000000	0.154579	0.000000	-0.000003	-0.000001	0.000000	0.000000
55.581035	20.292022	15.099057	-0.624960	0.575936	2.779054	0.000000	0.073400	0.000000	-0.000004	-0.000001	0.000000	0.000000
56.130095	20.632404	14.754739	0.008694	0.054869	2.796738	0.000000	-0.009080	0.000000	-0.000004	-0.000000	0.000000	0.000000
56.428668	20.663734	14.705047	-0.059717	0.073010	2.796209	0.000000	-0.001773	0.000000	-0.000004	-0.000000	0.000000	0.000000
56.762001	20.708941	14.663970	-0.075906	0.050221	2.795618	0.000000	-0.001773	0.000000	-0.000004	-0.000000	0.000000	0.000000
57.095334	20.764942	14.638086	-0.092095	0.027432	2.795028	0.000000	-0.001773	0.000000	-0.000004	-0.000000	0.000000	0.000000
57.429918	20.832005	14.627382	-0.108344	0.004558	2.794435	0.000000	-0.001773	0.000000	-0.000004	-0.000000	0.000000	0.000000
57.727240	20.900725	14.630715	-0.177396	0.022460	2.793908	0.000000	0.005528	0.000000	-0.000005	-0.000000	0.000000	0.000000
58.276300	20.738935	14.887025	0.470318	-0.492031	2.774304	0.000000	-0.076830	0.000000	-0.000005	-0.000000	0.000000	0.000000
58.825360	19.879992	15.724122	1.084811	-1.041568	2.709789	0.000000	-0.157826	0.000000	-0.000005	-0.000000	0.000000	0.000000
59.374420	18.384565	17.201630	1.622678	-1.665294	2.601507	0.000000	-0.236021	0.000000	-0.000005	0.000000	0.000000	0.000000
59.923480	16.358286	19.424790	2.045928	-2.407635	2.451378	0.000000	-0.310031	0.000000	-0.000005	0.000000	0.000000	0.000000
60.369440	14.772303	21.400781	1.523002	-2.004533	2.328406	0.000000	-0.241753	0.000000	-0.000005	0.000000	0.000000	0.000000
60.810400	13.631516	22.957177	1.073865	-1.511599	2.236250	0.000000	-0.176626	0.000000	-0.000005	-0.000000	0.000000	0.000000
61.251360	12.863782	24.046741	0.673790	-0.949889	2.172342	0.000000	-0.113510	0.000000	-0.000005	-0.000000	0.000000	0.000000
61.692320	12.434027	24.619899	0.304498	-0.344960	2.135954	0.000000	-0.051687	0.000000	-0.000005	-0.000000	0.000000	0.000000
62.134530	12.322666	24.650033	-0.020763	0.215159	2.126677	0.000000	0.004331	0.000000	-0.000005	-0.000000	0.000000	0.000000
62.431853	12.342190	24.525842	-0.044901	0.202539	2.127965	0.000000	0.004331	0.000000	-0.000005	-0.000000	0.000000	0.000000
62.765186	12.381145	24.395532	-0.071963	0.188390	2.129409	0.000000	0.004331	0.000000	-0.000005	-0.000000	0.000000	0.000000
63.098520	12.438141	24.274655	-0.099026	0.174242	2.130853	0.000000	0.004331	0.000000	-0.000005	-0.000000	0.000000	0.000000
63.433103	12.513494	24.162810	-0.126189	0.160040	2.132302	0.000000	0.004331	0.000000	-0.000006	-0.000000	0.000000	0.000000
63.730426	12.595709	24.071395	-0.119438	0.088386	2.133590	0.000000	-0.000901	0.000000	-0.000006	-0.000000	0.000000	0.000000
64.171386	12.861426	23.728340	-0.485437	0.686626	2.146731	0.000000	0.060561	0.000000	-0.000006	-0.000001	0.000000	0.000000
64.612346	13.458448	22.869500	-0.873614	1.253624	2.187102	0.000000	0.122713	0.000000	-0.000006	-0.000001	0.000000	0.000000
65.053306	14.414051	21.533949	-1.301705	1.763584	2.255160	0.000000	0.186263	0.000000	-0.000007	-0.000001	0.000000	0.000000
65.494266	15.771895	19.782456	-1.789266	2.193302	2.351682	0.000000	0.251934	0.000000	-0.000007	-0.000001	0.000000	0.000000
65.940226	17.617177	17.669924	-2.363267	2.523981	2.479339	0.000000	0.320876	0.000000	-0.000007	-0.000001	0.000000	0.000000
66.489286	19.982599	15.306626	-1.919363	1.805688	2.635157	0.000000	0.245868	0.000000	-0.000008	-0.000001	0.000000	0.000000
67.038346	21.782778	13.657269	-1.339885	1.216009	2.748532	0.000000	0.166500	0.000000	-0.000008	-0.000001	0.000000	0.000000
67.587406	22.890557	12.604373	-0.665765	0.712944	2.817452	0.000000	0.084178	0.000000	-0.000009	-0.000000	0.000000	0.000000
68.136466	23.227690	12.072942	0.055382	0.260661	2.840695	0.000000	0.000363	0.000000	-0.000009	-0.000000	0.000000	0.000000
68.435038	23.234700	11.906466	-0.018167	0.265365	2.843020	0.000000	0.007786	0.000000	-0.000009	-0.000000	0.000000	0.000000
68.768372	23.251595	11.739546	-0.032518	0.235398	2.845615	0.000000	0.007786	0.000000	-0.000009	-0.000000	0.000000	0.000000
69.101705	23.278057	11.592603	-0.046869	0.205430	2.848211	0.000000	0.007786	0.000000	-0.000009	-0.000000	0.000000	0.000000
69.436288	23.314240	11.465200	-0.061274	0.175350	2.850816	0.000000	0.007786	0.000000	-0.000009	-0.000000	0.000000	0.000000
69.733611	23.354482	11.368877	-0.135100	0.178327	2.853131	0.000000	0.015241	0.000000	-0.000009	-0.000000	0.000000	0.000000
70.282671	23.101741	11.400701	0.592690	-0.236631	2.838319	0.000000	-0.069113	0.000000	-0.000009	0.000000	0.000000	0.000000
