#ParticleID	Turn	x[m]	xp	y[m]	yp	z[m]	dE[GeV]# s	beta_x	beta_y	alpha_x	alpha_y	D_x	D_y	D_px	D_py	orbit_x	orbit_px	orbit_y	orbit_py
0.300000	11.804257	25.056337	-0.010107	-0.026826	2.618257	0.000000	-0.000042	0.000000	-0.000002	0.000002	0.000000	0.000000
0.601250	11.818036	25.076124	-0.035630	-0.038857	2.618244	0.000000	-0.000042	0.000000	-0.000001	0.000002	0.000000	0.000000
0.898573	11.846713	25.102761	-0.031769	-0.112291	2.618231	0.000000	-0.006463	0.000000	-0.000000	0.000002	0.000000	0.000000
1.339533	12.026746	24.923315	-0.378056	0.517686	2.631674	0.000000	0.067497	0.000000	0.000000	0.000002	0.000000	0.000000
1.780493	12.518611	24.196583	-0.741616	1.124109	2.677869	0.000000	0.142226	0.000000	0.000001	0.000002	0.000000	0.000000
2.221453	13.344779	22.955632	-1.139058	1.679386	2.757342	0.000000	0.218575	0.000000	0.000002	0.000002	0.000000	0.000000
2.662413	14.542995	21.256922	-1.588540	2.158252	2.870998	0.000000	0.297413	0.000000	0.000003	0.000002	0.000000	0.000000
3.108373	16.188720	19.152836	-2.114883	2.540054	3.021993	0.000000	0.380128	0.000000	0.000004	0.000002	0.000000	0.000000
3.657433	18.299128	16.789581	-1.706037	1.789536	3.205433	0.000000	0.287090	0.000000	0.000005	0.000002	0.000000	0.000000
4.206493	19.891342	15.176073	-1.176685	1.166483	3.336315	0.000000	0.188960	0.000000	0.000006	0.000002	0.000000	0.000000
4.755553	20.852895	14.197385	-0.564218	0.626517	3.412317	0.000000	0.087479	0.000000	0.000006	0.000001	0.000000	0.000000
5.304613	21.115867	13.783807	0.088103	0.131176	3.432091	0.000000	-0.015554	0.000000	0.000007	0.000001	0.000000	0.000000
5.603185	21.100427	13.690620	0.018779	0.144921	3.430124	0.000000	-0.006587	0.000000	0.000008	0.000001	0.000000	0.000000
5.936519	21.093175	13.602292	0.002976	0.120062	3.427928	0.000000	-0.006587	0.000000	0.000008	0.000001	0.000000	0.000000
6.269852	21.096459	13.530537	-0.012827	0.095203	3.425731	0.000000	-0.006587	0.000000	0.000008	0.000001	0.000000	0.000000
6.604435	21.110349	13.475179	-0.028689	0.070251	3.423527	0.000000	-0.006587	0.000000	0.000009	0.000001	0.000000	0.000000
6.901758	21.131600	13.439997	-0.097994	0.083192	3.421568	0.000000	0.002352	0.000000	0.000009	0.000001	0.000000	0.000000
7.450818	20.879098	13.609606	0.555152	-0.393923	3.394659	0.000000	-0.100225	0.000000	0.000010	0.000001	0.000000	0.000000
7.999878	19.926752	14.315385	1.169084	-0.899095	3.311835	0.000000	-0.201023	0.000000	0.000010	0.000001	0.000000	0.000000
8.548938	18.341831	15.607604	1.700438	-1.468308	3.174565	0.000000	-0.298257	0.000000	0.000011	0.000000	0.000000	0.000000
9.097998	16.236285	17.578306	2.111681	-2.142106	2.985284	0.000000	-0.390199	0.000000	0.000011	-0.000000	0.000000	0.000000
9.543958	14.593625	19.334269	1.584838	-1.778741	2.829577	0.000000	-0.308498	0.000000	0.000011	0.000000	0.000000	0.000000
9.984918	13.398956	20.712850	1.134686	-1.335680	2.710786	0.000000	-0.230794	0.000000	0.000011	0.000001	0.000000	0.000000
10.425878	12.577011	21.672295	0.736374	-0.831848	2.625649	0.000000	-0.155719	0.000000	0.000011	0.000001	0.000000	0.000000
10.866838	12.090239	22.168948	0.371705	-0.290167	2.573194	0.000000	-0.082417	0.000000	0.000012	0.000001	0.000000	0.000000
11.309048	11.916267	22.179688	0.053133	0.210271	2.552805	0.000000	-0.016313	0.000000	0.000012	0.000001	0.000000	0.000000
11.606371	11.892111	22.058813	0.028111	0.196273	2.547954	0.000000	-0.016313	0.000000	0.000013	0.000001	0.000000	0.000000
12.086371	11.884514	21.881238	-0.012283	0.173675	2.540123	0.000000	-0.016313	0.000000	0.000013	0.000001	0.000000	0.000000
12.566371	11.915696	21.725357	-0.052678	0.151077	2.532292	0.000000	-0.016313	0.000000	0.000014	0.000001	0.000000	0.000000
13.046371	11.985656	21.591170	-0.093073	0.128479	2.524461	0.000000	-0.016313	0.000000	0.000015	0.000001	0.000000	0.000000
13.526371	12.094396	21.478678	-0.133468	0.105880	2.516630	0.000000	-0.016313	0.000000	0.000015	0.000001	0.000000	0.000000
14.007621	12.242349	21.387672	-0.173968	0.083223	2.508779	0.000000	-0.016313	0.000000	0.000016	0.000001	0.000000	0.000000
14.304943	12.353238	21.342345	-0.168700	0.016896	2.503928	0.000000	-0.022453	0.000000	0.000016	0.000001	0.000000	0.000000
14.745903	12.660494	21.093871	-0.530733	0.544444	2.509656	0.000000	0.048461	0.000000	0.000017	0.000002	0.000000	0.000000
15.186863	13.296481	20.389329	-0.917014	1.047220	2.546746	0.000000	0.119927	0.000000	0.000018	0.000002	0.000000	0.000000
15.627823	14.290254	19.260777	-1.345191	1.502349	2.615621	0.000000	0.192759	0.000000	0.000019	0.000003	0.000000	0.000000
16.068783	15.687215	17.759561	-1.834826	1.889122	2.717064	0.000000	0.267786	0.000000	0.000020	0.000003	0.000000	0.000000
16.514743	17.574851	15.932486	-2.413047	2.190683	2.853925	0.000000	0.346325	0.000000	0.000022	0.000004	0.000000	0.000000
17.063803	19.999367	13.892467	-1.976567	1.546723	3.020351	0.000000	0.259009	0.000000	0.000024	0.000003	0.000000	0.000000
17.612863	21.864607	12.495310	-1.400472	1.012932	3.137501	0.000000	0.167098	0.000000	0.000025	0.000002	0.000000	0.000000
18.161923	23.038819	11.641498	-0.725454	0.551290	3.203298	0.000000	0.072224	0.000000	0.000026	0.000001	0.000000	0.000000
18.710983	23.439064	11.270216	0.000806	0.128915	3.216575	0.000000	-0.023932	0.000000	0.000027	0.000001	0.000000	0.000000
19.009556	23.478962	11.183763	-0.073207	0.131199	3.211938	0.000000	-0.015529	0.000000	0.000027	0.000001	0.000000	0.000000
19.342889	23.532524	11.106402	-0.087480	0.100881	3.206761	0.000000	-0.015529	0.000000	0.000027	0.000001	0.000000	0.000000
19.676223	23.595602	11.049254	-0.101753	0.070563	3.201585	0.000000	-0.015529	0.000000	0.000027	0.000001	0.000000	0.000000
20.010806	23.668778	11.012082	-0.233348	0.094692	3.196408	0.000000	0.000308	0.000000	0.000027	0.000001	0.000000	0.000000
20.308129	23.811476	10.963873	-0.308795	0.096090	3.196500	0.000000	0.008658	0.000000	0.000028	0.000001	0.000000	0.000000
20.857189	23.739870	11.080253	0.438439	-0.309303	3.175039	0.000000	-0.086715	0.000000	0.000028	-0.000000	0.000000	0.000000
21.406249	22.859930	11.651217	1.154703	-0.736728	3.101559	0.000000	-0.180549	0.000000	0.000027	-0.000001	0.000000	0.000000
21.955309	21.233811	12.717433	1.789405	-1.216628	2.977363	0.000000	-0.271181	0.000000	0.000027	-0.000002	0.000000	0.000000
22.504369	18.976374	14.354846	2.297712	-1.783185	2.804655	0.000000	-0.357003	0.000000	0.000025	-0.000003	0.000000	0.000000
22.950329	17.197206	15.825052	1.705891	-1.499628	2.662737	0.000000	-0.279807	0.000000	0.000024	-0.000002	0.000000	0.000000
23.391289	15.922114	16.997316	1.196705	-1.148691	2.555673	0.000000	-0.206253	0.000000	0.000024	-0.000001	0.000000	0.000000
23.832249	15.070368	17.835764	0.742192	-0.745489	2.480495	0.000000	-0.135048	0.000000	0.000023	-0.000001	0.000000	0.000000
24.273209	14.603056	18.302248	0.321588	-0.308368	2.436347	0.000000	-0.065381	0.000000	0.000023	-0.000000	0.000000	0.000000
24.715418	14.498949	18.375298	-0.048862	0.097663	2.422722	0.000000	-0.002399	0.000000	0.000023	0.000000	0.000000	0.000000
25.012741	14.534116	18.322080	-0.069417	0.081328	2.422009	0.000000	-0.002399	0.000000	0.000023	0.000000	0.000000	0.000000
25.346075	14.588076	18.273966	-0.092462	0.063014	2.421209	0.000000	-0.002399	0.000000	0.000023	0.000000	0.000000	0.000000
25.679408	14.657399	18.238061	-0.115507	0.044701	2.420409	0.000000	-0.002399	0.000000	0.000023	0.000000	0.000000	0.000000
26.013991	14.742133	18.214669	-0.019041	-0.121447	2.419582	0.000000	-0.022028	0.000000	0.000023	0.000000	0.000000	0.000000
26.311314	14.759454	18.291812	-0.003030	-0.182858	2.413032	0.000000	-0.027944	0.000000	0.000023	0.000000	0.000000	0.000000
26.752274	14.943950	18.254731	-0.416954	0.266630	2.415817	0.000000	0.040588	0.000000	0.000023	0.000001	0.000000	0.000000
27.193234	15.500484	17.825093	-0.849928	0.703986	2.448895	0.000000	0.109583	0.000000	0.000024	0.000001	0.000000	0.000000
27.634194	16.454480	17.022446	-1.321733	1.109312	2.512643	0.000000	0.179826	0.000000	0.000025	0.000002	0.000000	0.000000
28.075154	17.849526	15.883310	-1.853924	1.464165	2.607786	0.000000	0.252117	0.000000	0.000026	0.000003	0.000000	0.000000
28.521114	19.773590	14.442352	-2.475788	1.753311	2.737012	0.000000	0.327723	0.000000	0.000027	0.000003	0.000000	0.000000
29.070174	22.219074	12.836938	-1.951790	1.187879	2.894292	0.000000	0.244343	0.000000	0.000028	0.000002	0.000000	0.000000
29.619234	24.009571	11.802610	-1.289927	0.707057	3.004532	0.000000	0.156629	0.000000	0.000029	0.000001	0.000000	0.000000
30.168294	25.018609	11.265694	-0.536949	0.276597	3.065778	0.000000	0.066137	0.000000	0.000030	0.000000	0.000000	0.000000
30.717354	25.174915	11.187947	0.253955	-0.134162	3.076942	0.000000	-0.025529	0.000000	0.000030	-0.000001	0.000000	0.000000
31.015927	25.066202	11.258666	0.175914	-0.131918	3.071720	0.000000	-0.017491	0.000000	0.000030	-0.000000	0.000000	0.000000
31.349260	24.953496	11.356651	0.162205	-0.162040	3.065890	0.000000	-0.017491	0.000000	0.000030	-0.000000	0.000000	0.000000
31.682593	24.849929	11.474719	0.148495	-0.192162	3.060059	0.000000	-0.017491	0.000000	0.000029	-0.000000	0.000000	0.000000
32.017177	24.755165	11.613423	0.134734	-0.222397	3.054207	0.000000	-0.017491	0.000000	0.000029	-0.000000	0.000000	0.000000
32.314499	24.678682	11.753659	0.058040	-0.218562	3.049007	0.000000	-0.009527	0.000000	0.000029	-0.000000	0.000000	0.000000
32.863559	24.192088	12.232836	0.822944	-0.659312	3.018900	0.000000	-0.099980	0.000000	0.000029	-0.000001	0.000000	0.000000
33.412619	22.892642	13.218803	1.529718	-1.147023	2.939544	0.000000	-0.188660	0.000000	0.000028	-0.000002	0.000000	0.000000
33.961679	20.872132	14.781788	2.128440	-1.716435	2.812346	0.000000	-0.273994	0.000000	0.000026	-0.000003	0.000000	0.000000
34.510739	18.273275	17.033119	2.576820	-2.408104	2.639562	0.000000	-0.354468	0.000000	0.000024	-0.000004	0.000000	0.000000
34.956699	16.252501	19.046887	1.970702	-2.088622	2.497823	0.000000	-0.281552	0.000000	0.000023	-0.000003	0.000000	0.000000
35.397659	14.745574	20.712769	1.459639	-1.674854	2.389050	0.000000	-0.212272	0.000000	0.000021	-0.000003	0.000000	0.000000
35.838619	13.658365	21.978614	1.015263	-1.184880	2.310264	0.000000	-0.145409	0.000000	0.000020	-0.000002	0.000000	0.000000
36.279579	12.941203	22.786828	0.617271	-0.640996	2.260570	0.000000	-0.080202	0.000000	0.000019	-0.000002	0.000000	0.000000
36.721789	12.560627	23.100949	0.278172	-0.124641	2.239374	0.000000	-0.021399	0.000000	0.000019	-0.000001	0.000000	0.000000
37.019112	12.402796	23.178952	0.252670	-0.137711	2.233012	0.000000	-0.021399	0.000000	0.000018	-0.000001	0.000000	0.000000
37.352445	12.243880	23.275644	0.224078	-0.152365	2.225879	0.000000	-0.021399	0.000000	0.000018	-0.000001	0.000000	0.000000
37.685779	12.104025	23.382105	0.195487	-0.167018	2.218746	0.000000	-0.021399	0.000000	0.000017	-0.000001	0.000000	0.000000
38.020362	11.982813	23.498789	0.166788	-0.181727	2.211587	0.000000	-0.021399	0.000000	0.000017	-0.000001	0.000000	0.000000
38.317684	11.891216	23.610739	0.170442	-0.252689	2.205225	0.000000	-0.026806	0.000000	0.000017	-0.000001	0.000000	0.000000
38.758644	11.892468	23.572057	-0.173291	0.340076	2.207330	0.000000	0.036361	0.000000	0.000016	-0.000001	0.000000	0.000000
39.199604	12.199196	23.015456	-0.524941	0.917368	2.237354	0.000000	0.099942	0.000000	0.000016	-0.000000	0.000000	0.000000
39.640564	12.825415	21.966261	-0.900574	1.452920	2.295638	0.000000	0.164661	0.000000	0.000016	-0.000000	0.000000	0.000000
40.081524	13.799735	20.472209	-1.317351	1.922366	2.382846	0.000000	0.231255	0.000000	0.000016	0.000000	0.000000	0.000000
40.527484	15.184248	18.578699	-1.798143	2.305633	2.501444	0.000000	0.300889	0.000000	0.000016	0.000001	0.000000	0.000000
41.076544	16.950923	16.450794	-1.400444	1.592784	2.646124	0.000000	0.225345	0.000000	0.000016	0.000000	0.000000	0.000000
41.625604	18.223638	15.039163	-0.903824	0.993387	2.748166	0.000000	0.145805	0.000000	0.000016	-0.000000	0.000000	0.000000
42.174664	18.912496	14.243259	-0.343363	0.464746	2.805761	0.000000	0.063678	0.000000	0.000016	-0.000001	0.000000	0.000000
42.723724	18.968840	14.006390	0.241352	-0.030792	2.817886	0.000000	-0.019578	0.000000	0.000015	-0.000001	0.000000	0.000000
43.022297	18.859182	14.009292	0.175477	-0.015518	2.814239	0.000000	-0.012216	0.000000	0.000015	-0.000001	0.000000	0.000000
43.502297	18.703316	14.040639	0.149242	-0.049789	2.808376	0.000000	-0.012216	0.000000	0.000014	-0.000001	0.000000	0.000000
43.982297	18.572637	14.104887	0.123006	-0.084060	2.802513	0.000000	-0.012216	0.000000	0.000014	-0.000001	0.000000	0.000000
44.462297	18.467144	14.202035	0.096771	-0.118332	2.796650	0.000000	-0.012216	0.000000	0.000013	-0.000001	0.000000	0.000000
44.942297	18.386837	14.332083	0.070535	-0.152603	2.790787	0.000000	-0.012216	0.000000	0.000013	-0.000001	0.000000	0.000000
45.423547	18.331833	14.495320	-0.046595	-0.115144	2.784926	0.000000	0.001582	0.000000	0.000012	-0.000001	0.000000	0.000000
45.720870	18.364373	14.569969	-0.110827	-0.097863	2.785397	0.000000	0.008859	0.000000	0.000012	-0.000001	0.000000	0.000000
46.269930	18.176864	14.959166	0.450314	-0.615162	2.767693	0.000000	-0.073254	0.000000	0.000011	-0.000002	0.000000	0.000000
46.818990	17.387053	15.937002	0.979647	-1.176278	2.705196	0.000000	-0.154067	0.000000	0.000010	-0.000002	0.000000	0.000000
47.368050	16.050729	17.573127	1.439783	-1.821177	2.599012	0.000000	-0.232148	0.000000	0.000009	-0.000002	0.000000	0.000000
47.917110	14.262284	19.984079	1.798219	-2.595795	2.451027	0.000000	-0.306112	0.000000	0.000008	-0.000002	0.000000	0.000000
48.363070	12.870618	22.127537	1.333445	-2.190390	2.329805	0.000000	-0.237820	0.000000	0.000006	-0.000002	0.000000	0.000000
48.804030	11.874825	23.843666	0.933362	-1.686601	2.239395	0.000000	-0.172634	0.000000	0.000005	-0.000002	0.000000	0.000000
49.244990	11.211806	25.079827	0.575921	-1.106073	2.177269	0.000000	-0.109415	0.000000	0.000005	-0.000002	0.000000	0.000000
49.685950	10.851271	25.779778	0.244793	-0.475220	2.142719	0.000000	-0.047441	0.000000	0.000004	-0.000002	0.000000	0.000000
50.128160	10.776870	25.911386	-0.048840	0.113666	2.135363	0.000000	0.008756	0.000000	0.000003	-0.000002	0.000000	0.000000
50.425482	10.814135	25.847250	-0.076495	0.102043	2.137967	0.000000	0.008756	0.000000	0.000002	-0.000002	0.000000	0.000000
50.758816	10.875466	25.783565	-0.107499	0.089013	2.140886	0.000000	0.008756	0.000000	0.000002	-0.000002	0.000000	0.000000
51.092149	10.957467	25.728566	-0.138503	0.075982	2.143805	0.000000	0.008756	0.000000	0.000001	-0.000002	0.000000	0.000000
51.426732	11.060337	25.682619	-0.079895	-0.145447	2.146713	0.000000	-0.008660	0.000000	0.000001	-0.000002	0.000000	0.000000
51.724055	11.115890	25.772623	-0.079689	-0.220472	2.144139	0.000000	-0.013918	0.000000	0.000000	-0.000002	0.000000	0.000000
52.165015	11.331337	25.680306	-0.410751	0.429028	2.151590	0.000000	0.047743	0.000000	-0.000001	-0.000002	0.000000	0.000000
52.605975	11.845894	25.021636	-0.760579	1.059007	2.186326	0.000000	0.109947	0.000000	-0.000002	-0.000002	0.000000	0.000000
53.046935	12.683071	23.826580	-1.145156	1.640803	2.248741	0.000000	0.173404	0.000000	-0.000002	-0.000002	0.000000	0.000000
53.487895	13.881116	22.149513	-1.582052	2.147943	2.339546	0.000000	0.238836	0.000000	-0.000003	-0.000002	0.000000	0.000000
53.933855	15.515303	20.041668	-2.095451	2.558692	2.461280	0.000000	0.307387	0.000000	-0.000004	-0.000002	0.000000	0.000000
54.482915	17.619332	17.669737	-1.713922	1.786794	2.609875	0.000000	0.233082	0.000000	-0.000005	-0.000002	0.000000	0.000000
55.031975	19.235034	16.071000	-1.211329	1.142165	2.716475	0.000000	0.154642	0.000000	-0.000006	-0.000002	0.000000	0.000000
55.581035	20.248284	15.131583	-0.623175	0.578890	2.779188	0.000000	0.073459	0.000000	-0.000007	-0.000002	0.000000	0.000000
56.130095	20.587512	14.784573	0.008998	0.056848	2.796904	0.000000	-0.009026	0.000000	-0.000008	-0.000001	0.000000	0.000000
56.428668	20.618601	14.733642	-0.059329	0.075101	2.796391	0.000000	-0.001718	0.000000	-0.000008	-0.000001	0.000000	0.000000
56.762001	20.663561	14.691158	-0.075553	0.052350	2.795819	0.000000	-0.001718	0.000000	-0.000009	-0.000001	0.000000	0.000000
57.095334	20.719338	14.663842	-0.091776	0.029598	2.795247	0.000000	-0.001718	0.000000	-0.000009	-0.000001	0.000000	0.000000
57.429918	20.786200	14.651677	-0.108061	0.006761	2.794673	0.000000	-0.001718	0.000000	-0.000010	-0.000001	0.000000	0.000000
57.727240	20.854760	14.653690	-0.177026	0.024758	2.794162	0.000000	0.005583	0.000000	-0.000010	-0.000001	0.000000	0.000000
58.276300	20.693411	14.907825	0.469150	-0.490345	2.774588	0.000000	-0.076783	0.000000	-0.000011	-0.000001	0.000000	0.000000
58.825360	19.836561	15.743350	1.082187	-1.040374	2.710096	0.000000	-0.157788	0.000000	-0.000011	-0.000001	0.000000	0.000000
59.374420	18.344736	17.219777	1.618784	-1.664507	2.601832	0.000000	-0.235994	0.000000	-0.000011	-0.000000	0.000000	0.000000
59.923480	16.323308	19.442269	2.041038	-2.407199	2.451716	0.000000	-0.310014	0.000000	-0.000011	0.000000	0.000000	0.000000
60.369440	14.741205	21.417589	1.519159	-2.003469	2.328753	0.000000	-0.241727	0.000000	-0.000011	-0.000000	0.000000	0.000000
60.810400	13.603416	22.972788	1.070885	-1.509960	2.236610	0.000000	-0.176591	0.000000	-0.000012	-0.000000	0.000000	0.000000
61.251360	12.837983	24.060679	0.671536	-0.947749	2.172719	0.000000	-0.113466	0.000000	-0.000012	-0.000001	0.000000	0.000000
61.692320	12.409933	24.631763	0.302868	-0.342416	2.136353	0.000000	-0.051633	0.000000	-0.000012	-0.000001	0.000000	0.000000
62.134530	12.299767	24.659511	-0.021899	0.217963	2.127103	0.000000	0.004395	0.000000	-0.000013	-0.000001	0.000000	0.000000
62.431853	12.319980	24.533656	-0.046083	0.205333	2.128410	0.000000	0.004395	0.000000	-0.000013	-0.000001	0.000000	0.000000
62.765186	12.359740	24.401487	-0.073197	0.191174	2.129875	0.000000	0.004395	0.000000	-0.000014	-0.000001	0.000000	0.000000
63.098520	12.417576	24.278758	-0.100311	0.177014	2.131340	0.000000	0.004395	0.000000	-0.000014	-0.000001	0.000000	0.000000
63.433103	12.493807	24.165061	-0.127526	0.162801	2.132811	0.000000	0.004395	0.000000	-0.000015	-0.000001	0.000000	0.000000
63.730426	12.576831	24.072007	-0.120865	0.091131	2.134118	0.000000	-0.000840	0.000000	-0.000015	-0.000001	0.000000	0.000000
64.171386	12.843629	23.726548	-0.486471	0.689315	2.147290	0.000000	0.060636	0.000000	-0.000016	-0.000002	0.000000	0.000000
64.612346	13.441408	22.865405	-0.874304	1.256136	2.187698	0.000000	0.122803	0.000000	-0.000017	-0.000002	0.000000	0.000000
65.053306	14.397478	21.527761	-1.302080	1.765803	2.255800	0.000000	0.186369	0.000000	-0.000018	-0.000003	0.000000	0.000000
65.494266	15.755520	19.774477	-1.789345	2.195128	2.352373	0.000000	0.252057	0.000000	-0.000019	-0.000003	0.000000	0.000000
65.940226	17.600740	17.660524	-2.363051	2.525327	2.480090	0.000000	0.321018	0.000000	-0.000021	-0.000004	0.000000	0.000000
66.489286	19.966305	15.295748	-1.919838	1.807051	2.635981	0.000000	0.245985	0.000000	-0.000022	-0.000003	0.000000	0.000000
67.038346	21.767371	13.644840	-1.341018	1.217487	2.749413	0.000000	0.166589	0.000000	-0.000024	-0.000002	0.000000	0.000000
67.587406	22.876721	12.590211	-0.667476	0.714642	2.818375	0.000000	0.084238	0.000000	-0.000025	-0.000001	0.000000	0.000000
68.136466	23.215995	12.056741	0.053214	0.262699	2.841643	0.000000	0.000392	0.000000	-0.000025	-0.000001	0.000000	0.000000
68.435038	23.224289	11.889090	-0.020319	0.267301	2.843978	0.000000	0.007819	0.000000	-0.000025	-0.000001	0.000000	0.000000
68.768372	23.242621	11.720902	-0.034678	0.237261	2.846584	0.000000	0.007819	0.000000	-0.000026	-0.000001	0.000000	0.000000
69.101705	23.270526	11.572742	-0.049037	0.207220	2.849191	0.000000	0.007819	0.000000	-0.000026	-0.000001	0.000000	0.000000
69.436288	23.308162	11.444166	-0.063449	0.177068	2.851807	0.000000	0.007819	0.000000	-0.000026	-0.000001	0.000000	0.000000
69.733611	23.349700	11.346840	-0.137279	0.179926	2.854132	0.000000	0.015278	0.000000	-0.000026	-0.000001	0.000000	0.000000
70.282671	23.099418	11.376564	0.590417	-0.234381	2.839332	0.000000	-0.069109	0.000000	-0.000026	0.000000	0.000000	0.000000
