#ParticleID	Turn	x[m]	xp	y[m]	yp	z[m]	dE[GeV]# s	beta_x	beta_y	alpha_x	alpha_y	D_x	D_y	D_px	D_py	orbit_x	orbit_px	orbit_y	orbit_py
0.300000	11.802066	25.063678	-0.009968	-0.026706	2.618366	0.000000	-0.000084	0.000000	-0.000002	0.000002	0.000000	0.000000
0.601250	11.815762	25.083392	-0.035496	-0.038734	2.618340	0.000000	-0.000084	0.000000	-0.000001	0.000002	0.000000	0.000000
0.898573	11.844361	25.109955	-0.031645	-0.112182	2.618315	0.000000	-0.006505	0.000000	-0.000001	0.000002	0.000000	0.000000
1.339533	12.024261	24.930329	-0.377876	0.517983	2.631740	0.000000	0.067457	0.000000	0.000000	0.000002	0.000000	0.000000
1.780493	12.515939	24.203258	-0.741370	1.124580	2.677918	0.000000	0.142187	0.000000	0.000001	0.000002	0.000000	0.000000
2.221453	13.341857	22.961822	-1.138736	1.680010	2.757374	0.000000	0.218537	0.000000	0.000002	0.000002	0.000000	0.000000
2.662413	14.539751	21.262505	-1.588127	2.159001	2.871013	0.000000	0.297376	0.000000	0.000003	0.000002	0.000000	0.000000
3.108373	16.185060	19.157707	-2.114360	2.540893	3.021991	0.000000	0.380091	0.000000	0.000004	0.000002	0.000000	0.000000
3.657433	18.294947	16.793644	-1.705617	1.790178	3.205411	0.000000	0.287054	0.000000	0.000005	0.000002	0.000000	0.000000
4.206493	19.886769	15.179518	-1.176397	1.166973	3.336273	0.000000	0.188925	0.000000	0.000006	0.000002	0.000000	0.000000
4.755553	20.848088	14.200360	-0.564083	0.626889	3.412256	0.000000	0.087445	0.000000	0.000007	0.000002	0.000000	0.000000
5.304613	21.111001	13.786426	0.088076	0.131457	3.432012	0.000000	-0.015586	0.000000	0.000008	0.000001	0.000000	0.000000
5.603185	21.095570	13.693066	0.018762	0.145212	3.430035	0.000000	-0.006619	0.000000	0.000008	0.000001	0.000000	0.000000
5.936519	21.088331	13.604544	0.002955	0.120355	3.427828	0.000000	-0.006619	0.000000	0.000008	0.000001	0.000000	0.000000
6.269852	21.091630	13.532592	-0.012851	0.095498	3.425622	0.000000	-0.006619	0.000000	0.000009	0.000001	0.000000	0.000000
6.604435	21.105538	13.477036	-0.028717	0.070549	3.423406	0.000000	-0.006619	0.000000	0.000009	0.000001	0.000000	0.000000
6.901758	21.126806	13.441676	-0.098012	0.083496	3.421438	0.000000	0.002320	0.000000	0.000010	0.000001	0.000000	0.000000
7.450818	20.874413	13.610976	0.554974	-0.393660	3.394512	0.000000	-0.100252	0.000000	0.000011	0.000001	0.000000	0.000000
7.999878	19.922343	14.316479	1.168760	-0.898854	3.311674	0.000000	-0.201046	0.000000	0.000011	0.000001	0.000000	0.000000
8.548938	18.337847	15.608438	1.699991	-1.468072	3.174393	0.000000	-0.298274	0.000000	0.000011	0.000000	0.000000	0.000000
9.097998	16.232845	17.578876	2.111143	-2.141858	2.985105	0.000000	-0.390211	0.000000	0.000011	0.000000	0.000000	0.000000
9.543958	14.590615	19.334599	1.584408	-1.778453	2.829391	0.000000	-0.308514	0.000000	0.000012	0.000000	0.000000	0.000000
9.984918	13.396285	20.712913	1.134344	-1.335366	2.710592	0.000000	-0.230815	0.000000	0.000012	0.000001	0.000000	0.000000
10.425878	12.574609	21.672074	0.736105	-0.831520	2.625444	0.000000	-0.155745	0.000000	0.000012	0.000001	0.000000	0.000000
10.866838	12.088048	22.168438	0.371496	-0.289842	2.572977	0.000000	-0.082449	0.000000	0.000013	0.000001	0.000000	0.000000
11.309048	11.914238	22.178897	0.052968	0.210581	2.552572	0.000000	-0.016350	0.000000	0.000013	0.000002	0.000000	0.000000
11.606371	11.890182	22.057838	0.027943	0.196581	2.547710	0.000000	-0.016350	0.000000	0.000014	0.000002	0.000000	0.000000
12.086371	11.882749	21.879969	-0.012458	0.173979	2.539861	0.000000	-0.016350	0.000000	0.000014	0.000002	0.000000	0.000000
12.566371	11.914101	21.723798	-0.052859	0.151377	2.532012	0.000000	-0.016350	0.000000	0.000015	0.000002	0.000000	0.000000
13.046371	11.984239	21.589325	-0.093260	0.128776	2.524163	0.000000	-0.016350	0.000000	0.000016	0.000002	0.000000	0.000000
13.526371	12.093161	21.476549	-0.133661	0.106174	2.516315	0.000000	-0.016350	0.000000	0.000017	0.000002	0.000000	0.000000
14.007621	12.241303	21.385262	-0.174167	0.083513	2.508445	0.000000	-0.016350	0.000000	0.000017	0.000002	0.000000	0.000000
14.304943	12.352311	21.339764	-0.168906	0.017191	2.503583	0.000000	-0.022489	0.000000	0.000018	0.000001	0.000000	0.000000
14.745903	12.659743	21.091063	-0.530925	0.544663	2.509294	0.000000	0.048416	0.000000	0.000019	0.000002	0.000000	0.000000
15.186863	13.295896	20.386365	-0.917201	1.047354	2.546362	0.000000	0.119872	0.000000	0.000020	0.000002	0.000000	0.000000
15.627823	14.289834	19.257735	-1.345381	1.502390	2.615210	0.000000	0.192694	0.000000	0.000021	0.000003	0.000000	0.000000
16.068783	15.686968	17.756524	-1.835028	1.889070	2.716622	0.000000	0.267710	0.000000	0.000022	0.000004	0.000000	0.000000
16.514743	17.574793	15.929537	-2.413270	2.190539	2.853446	0.000000	0.346237	0.000000	0.000024	0.000004	0.000000	0.000000
17.063803	19.999570	13.889634	-1.976818	1.546654	3.019828	0.000000	0.258937	0.000000	0.000026	0.000003	0.000000	0.000000
17.612863	21.865093	12.492513	-1.400733	1.012934	3.136943	0.000000	0.167044	0.000000	0.000027	0.000002	0.000000	0.000000
18.161923	23.039590	11.638659	-0.725707	0.551363	3.202715	0.000000	0.072188	0.000000	0.000029	0.000002	0.000000	0.000000
18.710983	23.440100	11.267256	0.000580	0.129065	3.215977	0.000000	-0.023948	0.000000	0.000029	0.000001	0.000000	0.000000
19.009556	23.480134	11.180721	-0.073435	0.131332	3.211335	0.000000	-0.015548	0.000000	0.000029	0.000001	0.000000	0.000000
19.342889	23.533848	11.103275	-0.087708	0.101005	3.206152	0.000000	-0.015548	0.000000	0.000030	0.000001	0.000000	0.000000
19.676223	23.597078	11.046048	-0.101981	0.070677	3.200969	0.000000	-0.015548	0.000000	0.000030	0.000001	0.000000	0.000000
20.010806	23.670406	11.008802	-0.233583	0.094780	3.195787	0.000000	0.000286	0.000000	0.000030	0.000001	0.000000	0.000000
20.308129	23.813244	10.960543	-0.309034	0.096161	3.195872	0.000000	0.008634	0.000000	0.000030	0.000001	0.000000	0.000000
20.857189	23.741866	11.076794	0.438263	-0.309138	3.174404	0.000000	-0.086718	0.000000	0.000031	-0.000000	0.000000	0.000000
21.406249	22.862078	11.647519	1.154604	-0.736455	3.100928	0.000000	-0.180532	0.000000	0.000030	-0.000001	0.000000	0.000000
21.955309	21.236023	12.713369	1.789388	-1.216229	2.976748	0.000000	-0.271143	0.000000	0.000029	-0.000002	0.000000	0.000000
22.504369	18.978558	14.350262	2.297779	-1.782632	2.804065	0.000000	-0.356945	0.000000	0.000028	-0.000003	0.000000	0.000000
22.950329	17.199350	15.820023	1.705913	-1.499186	2.662170	0.000000	-0.279765	0.000000	0.000027	-0.000002	0.000000	0.000000
23.391289	15.924259	16.991954	1.196682	-1.148380	2.555122	0.000000	-0.206225	0.000000	0.000026	-0.000002	0.000000	0.000000
23.832249	15.072554	17.830192	0.742123	-0.745324	2.479953	0.000000	-0.135034	0.000000	0.000025	-0.000001	0.000000	0.000000
24.273209	14.605323	18.296597	0.321471	-0.308356	2.435807	0.000000	-0.065381	0.000000	0.000025	-0.000000	0.000000	0.000000
24.715418	14.501344	18.369705	-0.049028	0.097536	2.422179	0.000000	-0.002412	0.000000	0.000025	0.000000	0.000000	0.000000
25.012741	14.536609	18.316564	-0.069580	0.081196	2.421462	0.000000	-0.002412	0.000000	0.000025	0.000000	0.000000	0.000000
25.346075	14.590676	18.268540	-0.092622	0.062878	2.420658	0.000000	-0.002412	0.000000	0.000025	0.000000	0.000000	0.000000
25.679408	14.660105	18.232727	-0.115664	0.044560	2.419854	0.000000	-0.002412	0.000000	0.000026	0.000000	0.000000	0.000000
26.013991	14.744942	18.209431	-0.019171	-0.121551	2.419023	0.000000	-0.022036	0.000000	0.000026	0.000000	0.000000	0.000000
26.311314	14.762340	18.286637	-0.003150	-0.182954	2.412471	0.000000	-0.027951	0.000000	0.000026	0.000000	0.000000	0.000000
26.752274	14.946974	18.249702	-0.417146	0.266396	2.415250	0.000000	0.040567	0.000000	0.000026	0.000001	0.000000	0.000000
27.193234	15.503711	17.820328	-0.850201	0.703624	2.448315	0.000000	0.109547	0.000000	0.000026	0.000001	0.000000	0.000000
27.634194	16.457989	17.018051	-1.322099	1.108839	2.512043	0.000000	0.179775	0.000000	0.000027	0.000002	0.000000	0.000000
28.075154	17.853405	15.879374	-1.854400	1.463602	2.607161	0.000000	0.252051	0.000000	0.000028	0.000003	0.000000	0.000000
28.521114	19.777951	14.438950	-2.476397	1.752683	2.736353	0.000000	0.327640	0.000000	0.000030	0.000004	0.000000	0.000000
29.070174	22.224041	12.834147	-1.952277	1.187387	2.893592	0.000000	0.244282	0.000000	0.000031	0.000003	0.000000	0.000000
29.619234	24.014991	11.800300	-1.290258	0.706667	3.003805	0.000000	0.156591	0.000000	0.000032	0.000002	0.000000	0.000000
30.168294	25.024297	11.263770	-0.537102	0.276280	3.065036	0.000000	0.066122	0.000000	0.000033	0.000000	0.000000	0.000000
30.717354	25.180667	11.186341	0.253993	-0.134427	3.076199	0.000000	-0.025519	0.000000	0.000033	-0.000001	0.000000	0.000000
31.015927	25.071938	11.257222	0.175941	-0.132194	3.070979	0.000000	-0.017484	0.000000	0.000033	-0.000001	0.000000	0.000000
31.349260	24.959213	11.355394	0.162235	-0.162322	3.065151	0.000000	-0.017484	0.000000	0.000033	-0.000001	0.000000	0.000000
31.682593	24.855625	11.473651	0.148528	-0.192450	3.059323	0.000000	-0.017484	0.000000	0.000033	-0.000001	0.000000	0.000000
32.017177	24.760838	11.612550	0.134770	-0.222691	3.053474	0.000000	-0.017484	0.000000	0.000032	-0.000001	0.000000	0.000000
32.314499	24.684333	11.752963	0.058066	-0.218864	3.048275	0.000000	-0.009522	0.000000	0.000032	-0.000000	0.000000	0.000000
32.863559	24.197608	12.232468	0.823154	-0.659611	3.018178	0.000000	-0.099951	0.000000	0.000032	-0.000001	0.000000	0.000000
33.412619	22.897836	13.218772	1.530098	-1.147341	2.938844	0.000000	-0.188608	0.000000	0.000031	-0.000002	0.000000	0.000000
33.961679	20.876826	14.782126	2.128964	-1.716793	2.811680	0.000000	-0.273920	0.000000	0.000029	-0.000003	0.000000	0.000000
34.510739	18.277333	17.033885	2.577450	-2.408529	2.638943	0.000000	-0.354373	0.000000	0.000027	-0.000004	0.000000	0.000000
34.956699	16.256057	19.048042	1.971202	-2.089064	2.497243	0.000000	-0.281473	0.000000	0.000025	-0.000004	0.000000	0.000000
35.397659	14.748737	20.714312	1.460033	-1.675290	2.388501	0.000000	-0.212207	0.000000	0.000024	-0.000003	0.000000	0.000000
35.838619	13.661220	21.980533	1.015569	-1.185292	2.309742	0.000000	-0.145358	0.000000	0.000022	-0.000002	0.000000	0.000000
36.279579	12.943821	22.789093	0.617504	-0.641364	2.260067	0.000000	-0.080164	0.000000	0.000021	-0.000002	0.000000	0.000000
36.721789	12.563068	23.103514	0.278348	-0.124954	2.238884	0.000000	-0.021373	0.000000	0.000021	-0.000001	0.000000	0.000000
37.019112	12.405132	23.181703	0.252847	-0.138024	2.232530	0.000000	-0.021373	0.000000	0.000020	-0.000001	0.000000	0.000000
37.352445	12.246096	23.278603	0.224259	-0.152677	2.225406	0.000000	-0.021373	0.000000	0.000020	-0.000001	0.000000	0.000000
37.685779	12.106120	23.385272	0.195671	-0.167330	2.218282	0.000000	-0.021373	0.000000	0.000019	-0.000001	0.000000	0.000000
38.020362	11.984785	23.502165	0.166975	-0.182038	2.211132	0.000000	-0.021373	0.000000	0.000019	-0.000001	0.000000	0.000000
38.317684	11.893076	23.614299	0.170635	-0.253008	2.204777	0.000000	-0.026779	0.000000	0.000019	-0.000001	0.000000	0.000000
38.758644	11.894175	23.575856	-0.173138	0.339856	2.206892	0.000000	0.036376	0.000000	0.000018	-0.000001	0.000000	0.000000
39.199604	12.200784	23.019402	-0.524821	0.917257	2.236920	0.000000	0.099946	0.000000	0.000018	-0.000000	0.000000	0.000000
39.640564	12.826910	21.970255	-0.900482	1.452923	2.295204	0.000000	0.164654	0.000000	0.000018	-0.000000	0.000000	0.000000
40.081524	13.801160	20.476150	-1.317283	1.922482	2.382407	0.000000	0.231237	0.000000	0.000018	0.000000	0.000000	0.000000
40.527484	15.185622	18.582487	-1.798096	2.305858	2.500994	0.000000	0.300859	0.000000	0.000018	0.000001	0.000000	0.000000
41.076544	16.952211	16.454395	-1.400335	1.592902	2.645661	0.000000	0.225331	0.000000	0.000018	0.000000	0.000000	0.000000
41.625604	18.224776	15.042690	-0.903661	0.993404	2.747700	0.000000	0.145805	0.000000	0.000018	-0.000000	0.000000	0.000000
42.174664	18.913430	14.246820	-0.343156	0.464665	2.805299	0.000000	0.063694	0.000000	0.000018	-0.000001	0.000000	0.000000
42.723724	18.969529	14.010096	0.241587	-0.030977	2.817437	0.000000	-0.019547	0.000000	0.000017	-0.000001	0.000000	0.000000
43.022297	18.859732	14.013101	0.175710	-0.015688	2.813798	0.000000	-0.012187	0.000000	0.000017	-0.000001	0.000000	0.000000
43.502297	18.703645	14.044608	0.149473	-0.049950	2.807949	0.000000	-0.012187	0.000000	0.000016	-0.000001	0.000000	0.000000
43.982297	18.572744	14.109006	0.123236	-0.084212	2.802100	0.000000	-0.012187	0.000000	0.000016	-0.000001	0.000000	0.000000
44.462297	18.467031	14.206296	0.096999	-0.118475	2.796251	0.000000	-0.012187	0.000000	0.000015	-0.000001	0.000000	0.000000
44.942297	18.386505	14.336477	0.070763	-0.152737	2.790402	0.000000	-0.012187	0.000000	0.000014	-0.000001	0.000000	0.000000
45.423547	18.331283	14.499838	-0.046366	-0.115247	2.784555	0.000000	0.001609	0.000000	0.000014	-0.000001	0.000000	0.000000
45.720870	18.363687	14.574547	-0.110596	-0.097948	2.785034	0.000000	0.008885	0.000000	0.000013	-0.000001	0.000000	0.000000
46.269930	18.175939	14.963913	0.450516	-0.615388	2.767348	0.000000	-0.073216	0.000000	0.000012	-0.000002	0.000000	0.000000
46.818990	17.385930	15.942082	0.979805	-1.176661	2.704874	0.000000	-0.154019	0.000000	0.000011	-0.000002	0.000000	0.000000
47.368050	16.049463	17.578725	1.439885	-1.821744	2.598720	0.000000	-0.232090	0.000000	0.000010	-0.000002	0.000000	0.000000
47.917110	14.260939	19.990418	1.798259	-2.596586	2.450769	0.000000	-0.306045	0.000000	0.000009	-0.000003	0.000000	0.000000
48.363070	12.869229	22.134520	1.333504	-2.191036	2.329576	0.000000	-0.237759	0.000000	0.000007	-0.000003	0.000000	0.000000
48.804030	11.873374	23.851144	0.933442	-1.687073	2.239191	0.000000	-0.172579	0.000000	0.000006	-0.000002	0.000000	0.000000
49.244990	11.210273	25.087636	0.576028	-1.106349	2.177089	0.000000	-0.109364	0.000000	0.000005	-0.000002	0.000000	0.000000
49.685950	10.849631	25.787739	0.244930	-0.475287	2.142560	0.000000	-0.047395	0.000000	0.000004	-0.000002	0.000000	0.000000
50.128160	10.775094	25.919313	-0.048672	0.113791	2.135223	0.000000	0.008798	0.000000	0.000003	-0.000002	0.000000	0.000000
50.425482	10.812260	25.855102	-0.076331	0.102172	2.137840	0.000000	0.008798	0.000000	0.000003	-0.000002	0.000000	0.000000
50.758816	10.873484	25.791330	-0.107339	0.089145	2.140773	0.000000	0.008798	0.000000	0.000002	-0.000002	0.000000	0.000000
51.092149	10.955379	25.736242	-0.138348	0.076118	2.143707	0.000000	0.008798	0.000000	0.000001	-0.000002	0.000000	0.000000
51.426732	11.058147	25.690203	-0.079763	-0.145370	2.146629	0.000000	-0.008617	0.000000	0.000001	-0.000002	0.000000	0.000000
51.724055	11.113623	25.780160	-0.079567	-0.220409	2.144068	0.000000	-0.013875	0.000000	0.000000	-0.000002	0.000000	0.000000
52.165015	11.328938	25.687700	-0.410575	0.429289	2.151538	0.000000	0.047785	0.000000	-0.000001	-0.000002	0.000000	0.000000
52.605975	11.843314	25.028717	-0.760341	1.059454	2.186292	0.000000	0.109988	0.000000	-0.000002	-0.000002	0.000000	0.000000
53.046935	12.680248	23.833192	-1.144844	1.641415	2.248724	0.000000	0.173444	0.000000	-0.000002	-0.000002	0.000000	0.000000
53.487895	13.877980	22.155522	-1.581652	2.148693	2.339547	0.000000	0.238876	0.000000	-0.000003	-0.000002	0.000000	0.000000
53.933855	15.511765	20.046958	-2.094945	2.559546	2.461299	0.000000	0.307427	0.000000	-0.000004	-0.000002	0.000000	0.000000
54.482915	17.615289	17.674208	-1.713515	1.787440	2.609916	0.000000	0.233121	0.000000	-0.000006	-0.000002	0.000000	0.000000
55.031975	19.230613	16.074854	-1.211051	1.142649	2.716537	0.000000	0.154679	0.000000	-0.000007	-0.000002	0.000000	0.000000
55.581035	20.243638	15.134978	-0.623045	0.579247	2.779271	0.000000	0.073494	0.000000	-0.000008	-0.000002	0.000000	0.000000
56.130095	20.582809	14.787634	0.008970	0.057103	2.797005	0.000000	-0.008994	0.000000	-0.000009	-0.000001	0.000000	0.000000
56.428668	20.613909	14.736546	-0.059348	0.075367	2.796502	0.000000	-0.001686	0.000000	-0.000009	-0.000001	0.000000	0.000000
56.762001	20.658883	14.693883	-0.075575	0.052619	2.795941	0.000000	-0.001686	0.000000	-0.000009	-0.000001	0.000000	0.000000
57.095334	20.714675	14.666387	-0.091802	0.029871	2.795379	0.000000	-0.001686	0.000000	-0.000010	-0.000001	0.000000	0.000000
57.429918	20.781556	14.654038	-0.108090	0.007038	2.794816	0.000000	-0.001686	0.000000	-0.000010	-0.000001	0.000000	0.000000
57.727240	20.850135	14.655885	-0.177047	0.025044	2.794315	0.000000	0.005616	0.000000	-0.000011	-0.000001	0.000000	0.000000
58.276300	20.688894	14.909739	0.468975	-0.490116	2.774757	0.000000	-0.076756	0.000000	-0.000012	-0.000001	0.000000	0.000000
58.825360	19.832316	15.745036	1.081871	-1.040185	2.710279	0.000000	-0.157766	0.000000	-0.000012	-0.000001	0.000000	0.000000
59.374420	18.340904	17.221270	1.618349	-1.664344	2.602026	0.000000	-0.235978	0.000000	-0.000012	-0.000000	0.000000	0.000000
59.923480	16.320005	19.443592	2.040516	-2.407051	2.451916	0.000000	-0.310005	0.000000	-0.000012	0.000000	0.000000	0.000000
60.369440	14.738320	21.418754	1.518741	-2.003263	2.328959	0.000000	-0.241713	0.000000	-0.000012	-0.000000	0.000000	0.000000
60.810400	13.600862	22.973750	1.070551	-1.509706	2.236823	0.000000	-0.176571	0.000000	-0.000013	-0.000001	0.000000	0.000000
61.251360	12.835691	24.061400	0.671271	-0.947459	2.172943	0.000000	-0.113440	0.000000	-0.000013	-0.000001	0.000000	0.000000
61.692320	12.407849	24.632218	0.302660	-0.342103	2.136589	0.000000	-0.051602	0.000000	-0.000013	-0.000001	0.000000	0.000000
62.134530	12.297845	24.659685	-0.022064	0.218283	2.127355	0.000000	0.004432	0.000000	-0.000014	-0.000002	0.000000	0.000000
62.431853	12.318157	24.533640	-0.046252	0.205652	2.128673	0.000000	0.004432	0.000000	-0.000015	-0.000002	0.000000	0.000000
62.765186	12.358032	24.401259	-0.073371	0.191490	2.130151	0.000000	0.004432	0.000000	-0.000015	-0.000002	0.000000	0.000000
63.098520	12.415985	24.278319	-0.100489	0.177329	2.131628	0.000000	0.004432	0.000000	-0.000016	-0.000002	0.000000	0.000000
63.433103	12.492336	24.164413	-0.127709	0.163114	2.133112	0.000000	0.004432	0.000000	-0.000016	-0.000002	0.000000	0.000000
63.730426	12.575469	24.071173	-0.121054	0.091443	2.134430	0.000000	-0.000803	0.000000	-0.000017	-0.000002	0.000000	0.000000
64.171386	12.842422	23.725450	-0.486635	0.689597	2.147620	0.000000	0.060681	0.000000	-0.000017	-0.000002	0.000000	0.000000
64.612346	13.440337	22.864076	-0.874449	1.256375	2.188049	0.000000	0.122857	0.000000	-0.000018	-0.000002	0.000000	0.000000
65.053306	14.396530	21.526244	-1.302214	1.765989	2.256177	0.000000	0.186432	0.000000	-0.000019	-0.000003	0.000000	0.000000
65.494266	15.754687	19.772824	-1.789474	2.195252	2.352780	0.000000	0.252130	0.000000	-0.000021	-0.000003	0.000000	0.000000
65.940226	17.600021	17.658792	-2.363180	2.525382	2.480533	0.000000	0.321102	0.000000	-0.000022	-0.000004	0.000000	0.000000
66.489286	19.965754	15.293942	-1.920013	1.807133	2.636465	0.000000	0.246054	0.000000	-0.000024	-0.000003	0.000000	0.000000
67.038346	21.767031	13.642927	-1.341226	1.217602	2.749931	0.000000	0.166641	0.000000	-0.000026	-0.000002	0.000000	0.000000
67.587406	22.876620	12.588151	-0.667702	0.714798	2.818917	0.000000	0.084273	0.000000	-0.000027	-0.000002	0.000000	0.000000
68.136466	23.216146	12.054483	0.052985	0.262907	2.842200	0.000000	0.000410	0.000000	-0.000028	-0.000001	0.000000	0.000000
68.435038	23.224578	11.886713	-0.020550	0.267495	2.844541	0.000000	0.007838	0.000000	-0.000028	-0.000001	0.000000	0.000000
68.768372	23.243064	11.718399	-0.034909	0.237446	2.847153	0.000000	0.007838	0.000000	-0.000028	-0.000001	0.000000	0.000000
69.101705	23.271122	11.570118	-0.049267	0.207397	2.849766	0.000000	0.007838	0.000000	-0.000028	-0.000001	0.000000	0.000000
69.436288	23.308913	11.441427	-0.063680	0.177235	2.852389	0.000000	0.007838	0.000000	-0.000029	-0.000001	0.000000	0.000000
69.733611	23.350587	11.344004	-0.137513	0.180079	2.854720	0.000000	0.015299	0.000000	-0.000029	-0.000001	0.000000	0.000000
70.282671	23.100545	11.373516	0.590219	-0.234146	2.839926	0.000000	-0.069107	0.000000	-0.000029	0.000000	0.000000	0.000000
