#ParticleID	Turn	x[m]	xp	y[m]	yp	z[m]	dE[GeV]# s	beta_x	beta_y	alpha_x	alpha_y	D_x	D_y	D_px	D_py	orbit_x	orbit_px	orbit_y	orbit_py
0.300000	11.826667	24.966902	-0.012631	-0.027691	2.618170	0.000000	-0.000009	0.000000	0.000000	0.000000	0.000000	0.000000
0.601250	11.841952	24.987224	-0.038107	-0.039766	2.618168	0.000000	-0.000009	0.000000	0.000000	0.000000	0.000000	0.000000
0.898573	11.872088	25.014414	-0.034137	-0.113026	2.618165	0.000000	-0.006430	0.000000	0.000000	0.000000	0.000000	0.000000
1.339533	12.054484	24.836645	-0.381064	0.514632	2.631623	0.000000	0.067529	0.000000	0.000000	0.000000	0.000000	0.000000
1.780493	12.549332	24.113582	-0.745401	1.118875	2.677832	0.000000	0.142256	0.000000	0.000001	0.000000	0.000000	0.000000
2.221453	13.379243	22.878124	-1.143793	1.672211	2.757319	0.000000	0.218604	0.000000	0.000001	0.000000	0.000000	0.000000
2.662413	14.582131	21.186482	-1.594441	2.149462	2.870989	0.000000	0.297442	0.000000	0.000001	0.000000	0.000000	0.000000
3.108373	16.233744	19.090814	-2.122232	2.530044	3.021997	0.000000	0.380157	0.000000	0.000001	0.000000	0.000000	0.000000
3.657433	18.351625	16.737153	-1.712219	1.781968	3.205454	0.000000	0.287119	0.000000	0.000001	0.000000	0.000000	0.000000
4.206493	19.949781	15.130869	-1.181264	1.160818	3.336352	0.000000	0.188988	0.000000	0.000001	0.000000	0.000000	0.000000
4.755553	20.915326	14.157547	-0.566869	0.622350	3.412369	0.000000	0.087505	0.000000	0.000001	0.000000	0.000000	0.000000
5.304613	21.180060	13.747862	0.087566	0.128211	3.432158	0.000000	-0.015530	0.000000	0.000002	0.000000	0.000000	0.000000
5.603185	21.165029	13.656511	0.018115	0.141829	3.430198	0.000000	-0.006562	0.000000	0.000002	0.000000	0.000000	0.000000
5.936519	21.158204	13.570258	0.002361	0.116929	3.428011	0.000000	-0.006562	0.000000	0.000002	0.000000	0.000000	0.000000
6.269852	21.161882	13.500605	-0.013394	0.092030	3.425823	0.000000	-0.006562	0.000000	0.000002	0.000000	0.000000	0.000000
6.604435	21.176135	13.447384	-0.029207	0.067037	3.423628	0.000000	-0.006562	0.000000	0.000002	0.000000	0.000000	0.000000
6.901758	21.197681	13.414124	-0.098644	0.079876	3.421676	0.000000	0.002378	0.000000	0.000002	0.000000	0.000000	0.000000
7.450818	20.944676	13.586988	0.556714	-0.396570	3.394781	0.000000	-0.100203	0.000000	0.000002	0.000000	0.000000	0.000000
7.999878	19.989442	14.295395	1.172749	-0.901263	3.311968	0.000000	-0.201006	0.000000	0.000002	0.000000	0.000000	0.000000
8.548938	18.399454	15.589804	1.705946	-1.470151	3.174707	0.000000	-0.298243	0.000000	0.000002	-0.000000	0.000000	0.000000
9.097998	16.287019	17.562412	2.118645	-2.143755	2.985433	0.000000	-0.390191	0.000000	0.000002	-0.000000	0.000000	0.000000
9.543958	14.638840	19.320155	1.590294	-1.781068	2.829730	0.000000	-0.308485	0.000000	0.000002	-0.000000	0.000000	0.000000
9.984918	13.439925	20.701047	1.138896	-1.338574	2.710947	0.000000	-0.230777	0.000000	0.000002	0.000000	0.000000	0.000000
10.425878	12.614745	21.663245	0.739530	-0.835176	2.625818	0.000000	-0.155698	0.000000	0.000002	0.000000	0.000000	0.000000
10.866838	12.125600	22.162971	0.373951	-0.293778	2.573374	0.000000	-0.082391	0.000000	0.000002	0.000000	0.000000	0.000000
11.309048	11.950006	22.176970	0.054657	0.206543	2.552997	0.000000	-0.016284	0.000000	0.000002	0.000000	0.000000	0.000000
11.606371	11.924924	22.058306	0.029702	0.192564	2.548155	0.000000	-0.016284	0.000000	0.000002	0.000000	0.000000	0.000000
12.086371	11.915748	21.884277	-0.010585	0.169997	2.540339	0.000000	-0.016284	0.000000	0.000002	0.000000	0.000000	0.000000
12.566371	11.945248	21.731913	-0.050873	0.147429	2.532522	0.000000	-0.016284	0.000000	0.000002	0.000000	0.000000	0.000000
13.046371	12.013424	21.601213	-0.091160	0.124862	2.524706	0.000000	-0.016284	0.000000	0.000002	0.000000	0.000000	0.000000
13.526371	12.120275	21.492179	-0.131447	0.102294	2.516889	0.000000	-0.016284	0.000000	0.000003	0.000000	0.000000	0.000000
14.007621	12.266232	21.404609	-0.171840	0.079668	2.509053	0.000000	-0.016284	0.000000	0.000003	0.000000	0.000000	0.000000
14.304943	12.375835	21.361391	-0.166446	0.013306	2.504211	0.000000	-0.022425	0.000000	0.000003	0.000000	0.000000	0.000000
14.745903	12.681306	21.115833	-0.528921	0.541446	2.509954	0.000000	0.048496	0.000000	0.000003	0.000000	0.000000	0.000000
15.186863	13.315857	20.413624	-0.915560	1.044950	2.547062	0.000000	0.119970	0.000000	0.000003	0.000000	0.000000	0.000000
15.627823	14.308479	19.286713	-1.344029	1.500910	2.615958	0.000000	0.192810	0.000000	0.000003	0.000000	0.000000	0.000000
16.068783	15.704524	17.786375	-1.833902	1.888579	2.717426	0.000000	0.267846	0.000000	0.000003	0.000000	0.000000	0.000000
16.514743	17.591426	15.959370	-2.412320	2.191069	2.854318	0.000000	0.346395	0.000000	0.000004	0.000001	0.000000	0.000000
17.063803	20.014688	13.919248	-1.975029	1.546527	3.020780	0.000000	0.259065	0.000000	0.000004	0.000000	0.000000	0.000000
17.612863	21.877840	12.522630	-1.398232	1.012141	3.137959	0.000000	0.167141	0.000000	0.000004	0.000000	0.000000	0.000000
18.161923	23.049277	11.670037	-0.722670	0.549847	3.203776	0.000000	0.072251	0.000000	0.000004	0.000000	0.000000	0.000000
18.710983	23.446255	11.300742	0.003937	0.126718	3.217064	0.000000	-0.023920	0.000000	0.000004	0.000000	0.000000	0.000000
19.009556	23.484299	11.215523	-0.070098	0.129178	3.212431	0.000000	-0.015515	0.000000	0.000004	0.000000	0.000000	0.000000
19.342889	23.535785	11.139476	-0.084362	0.098962	3.207260	0.000000	-0.015515	0.000000	0.000004	0.000000	0.000000	0.000000
19.676223	23.596781	11.083574	-0.098625	0.068745	3.202088	0.000000	-0.015515	0.000000	0.000004	0.000000	0.000000	0.000000
20.010806	23.667861	11.047583	-0.230206	0.093152	3.196917	0.000000	0.000325	0.000000	0.000004	0.000000	0.000000	0.000000
20.308129	23.808685	11.000262	-0.305640	0.094746	3.197014	0.000000	0.008678	0.000000	0.000004	0.000000	0.000000	0.000000
20.857189	23.733682	11.118684	0.441434	-0.311700	3.175559	0.000000	-0.086711	0.000000	0.000004	-0.000000	0.000000	0.000000
21.406249	22.850639	11.692932	1.157327	-0.740348	3.102077	0.000000	-0.180562	0.000000	0.000004	-0.000000	0.000000	0.000000
21.955309	21.221931	12.763909	1.791472	-1.221730	2.977869	0.000000	-0.271211	0.000000	0.000004	-0.000000	0.000000	0.000000
22.504369	18.962600	14.407898	2.299076	-1.790132	2.805139	0.000000	-0.357049	0.000000	0.000004	-0.000000	0.000000	0.000000
22.950329	17.182160	15.883769	1.707392	-1.505330	2.663202	0.000000	-0.279841	0.000000	0.000004	-0.000000	0.000000	0.000000
23.391289	15.905660	17.060417	1.198410	-1.152895	2.556126	0.000000	-0.206275	0.000000	0.000004	-0.000000	0.000000	0.000000
23.832249	15.052293	17.901839	0.744180	-0.748003	2.480940	0.000000	-0.135058	0.000000	0.000004	-0.000000	0.000000	0.000000
24.273209	14.583070	18.369750	0.323950	-0.309078	2.436789	0.000000	-0.065380	0.000000	0.000004	-0.000000	0.000000	0.000000
24.715418	14.476670	18.442614	-0.046067	0.098616	2.423168	0.000000	-0.002389	0.000000	0.000004	0.000000	0.000000	0.000000
25.012741	14.510183	18.388813	-0.066648	0.082337	2.422458	0.000000	-0.002389	0.000000	0.000004	0.000000	0.000000	0.000000
25.346075	14.562306	18.340004	-0.089723	0.064088	2.421661	0.000000	-0.002389	0.000000	0.000004	0.000000	0.000000	0.000000
25.679408	14.629813	18.303363	-0.112797	0.045838	2.420865	0.000000	-0.002389	0.000000	0.000004	0.000000	0.000000	0.000000
26.013991	14.712744	18.279189	-0.016599	-0.120770	2.420041	0.000000	-0.022022	0.000000	0.000004	-0.000000	0.000000	0.000000
26.311314	14.728624	18.355911	-0.000695	-0.182286	2.413494	0.000000	-0.027940	0.000000	0.000004	-0.000000	0.000000	0.000000
26.752274	14.910721	18.317560	-0.413827	0.268928	2.416284	0.000000	0.040605	0.000000	0.000004	0.000000	0.000000	0.000000
27.193234	15.464096	17.885170	-0.845866	0.707905	2.449372	0.000000	0.109612	0.000000	0.000004	0.000000	0.000000	0.000000
27.634194	16.414031	17.078416	-1.316549	1.114673	2.513135	0.000000	0.179867	0.000000	0.000004	0.000000	0.000000	0.000000
28.075154	17.803926	15.934004	-1.847383	1.470725	2.608300	0.000000	0.252171	0.000000	0.000004	0.000000	0.000000	0.000000
28.521114	19.721432	14.486767	-2.467576	1.760773	2.737554	0.000000	0.327791	0.000000	0.000004	0.000000	0.000000	0.000000
29.070174	22.158594	12.874140	-1.944936	1.193633	2.894867	0.000000	0.244393	0.000000	0.000004	0.000000	0.000000	0.000000
29.619234	23.942536	11.834239	-1.284916	0.711512	3.005130	0.000000	0.156659	0.000000	0.000004	0.000000	0.000000	0.000000
30.168294	24.947252	11.292995	-0.534135	0.280071	3.066387	0.000000	0.066148	0.000000	0.000004	0.000000	0.000000	0.000000
30.717354	25.101773	11.211855	0.254374	-0.131421	3.077553	0.000000	-0.025537	0.000000	0.000004	-0.000000	0.000000	0.000000
31.015927	24.992716	11.280874	0.176471	-0.129035	3.072329	0.000000	-0.017497	0.000000	0.000004	-0.000000	0.000000	0.000000
31.349260	24.879653	11.376911	0.162719	-0.159076	3.066496	0.000000	-0.017497	0.000000	0.000004	-0.000000	0.000000	0.000000
31.682593	24.775758	11.492975	0.148966	-0.189116	3.060664	0.000000	-0.017497	0.000000	0.000004	-0.000000	0.000000	0.000000
32.017177	24.680693	11.629614	0.135162	-0.219269	3.054810	0.000000	-0.017497	0.000000	0.000004	-0.000000	0.000000	0.000000
32.314499	24.603967	11.767968	0.058612	-0.215318	3.049608	0.000000	-0.009529	0.000000	0.000004	-0.000000	0.000000	0.000000
32.863559	24.118111	12.243727	0.821037	-0.656292	3.019494	0.000000	-0.100002	0.000000	0.000004	-0.000000	0.000000	0.000000
33.412619	22.822067	13.226402	1.525468	-1.144013	2.940120	0.000000	-0.188700	0.000000	0.000004	-0.000000	0.000000	0.000000
33.961679	20.807380	14.785988	2.122148	-1.713219	2.812894	0.000000	-0.274052	0.000000	0.000004	-0.000000	0.000000	0.000000
34.510739	18.216359	17.033571	2.568930	-2.404454	2.640071	0.000000	-0.354543	0.000000	0.000003	-0.000001	0.000000	0.000000
34.956699	16.201834	19.043897	1.964532	-2.084585	2.498301	0.000000	-0.281615	0.000000	0.000003	-0.000001	0.000000	0.000000
35.397659	14.699703	20.706116	1.454894	-1.670617	2.389501	0.000000	-0.212323	0.000000	0.000003	-0.000000	0.000000	0.000000
35.838619	13.616132	21.968209	1.011726	-1.180638	2.310695	0.000000	-0.145448	0.000000	0.000003	-0.000000	0.000000	0.000000
36.279579	12.901618	22.772749	0.614781	-0.636940	2.260985	0.000000	-0.080231	0.000000	0.000003	-0.000000	0.000000	0.000000
36.721789	12.522824	23.083435	0.276527	-0.120922	2.239777	0.000000	-0.021419	0.000000	0.000003	-0.000000	0.000000	0.000000
37.019112	12.365988	23.159226	0.250969	-0.133991	2.233409	0.000000	-0.021419	0.000000	0.000003	-0.000000	0.000000	0.000000
37.352445	12.208227	23.253437	0.222315	-0.148642	2.226269	0.000000	-0.021419	0.000000	0.000002	-0.000000	0.000000	0.000000
37.685779	12.069568	23.357416	0.193662	-0.163294	2.219130	0.000000	-0.021419	0.000000	0.000002	-0.000000	0.000000	0.000000
38.020362	11.949598	23.471608	0.164901	-0.178000	2.211963	0.000000	-0.021419	0.000000	0.000002	-0.000000	0.000000	0.000000
38.317684	11.859140	23.581340	0.168424	-0.248896	2.205595	0.000000	-0.026828	0.000000	0.000002	-0.000000	0.000000	0.000000
38.758644	11.861852	23.539669	-0.174598	0.343038	2.207692	0.000000	0.036348	0.000000	0.000002	-0.000000	0.000000	0.000000
39.199604	12.169444	22.980874	-0.525598	0.919364	2.237712	0.000000	0.099938	0.000000	0.000002	-0.000000	0.000000	0.000000
39.640564	12.795968	21.930380	-0.900611	1.453859	2.295997	0.000000	0.164667	0.000000	0.000002	-0.000000	0.000000	0.000000
40.081524	13.770050	20.435984	-1.316771	1.922206	2.383210	0.000000	0.231271	0.000000	0.000002	0.000000	0.000000	0.000000
40.527484	15.153758	18.543111	-1.796914	2.304373	2.501817	0.000000	0.300914	0.000000	0.000002	0.000000	0.000000	0.000000
41.076544	16.919718	16.416076	-1.400379	1.592452	2.646508	0.000000	0.225358	0.000000	0.000002	-0.000000	0.000000	0.000000
41.625604	18.193007	15.004315	-0.904929	0.993959	2.748553	0.000000	0.145805	0.000000	0.000002	-0.000000	0.000000	0.000000
42.174664	18.883689	14.207270	-0.345559	0.466263	2.806144	0.000000	0.063666	0.000000	0.000002	-0.000000	0.000000	0.000000
42.723724	18.942975	13.968171	0.238220	-0.028222	2.818259	0.000000	-0.019602	0.000000	0.000002	-0.000000	0.000000	0.000000
43.022297	18.835151	13.969613	0.172403	-0.013103	2.814605	0.000000	-0.012239	0.000000	0.000002	-0.000000	0.000000	0.000000
43.502297	18.682240	13.998688	0.146162	-0.047470	2.808731	0.000000	-0.012239	0.000000	0.000002	-0.000000	0.000000	0.000000
43.982297	18.554521	14.060755	0.119920	-0.081836	2.802856	0.000000	-0.012239	0.000000	0.000002	-0.000000	0.000000	0.000000
44.462297	18.451994	14.155813	0.093678	-0.116202	2.796982	0.000000	-0.012239	0.000000	0.000002	-0.000000	0.000000	0.000000
44.942297	18.374659	14.283863	0.067436	-0.150568	2.791107	0.000000	-0.012239	0.000000	0.000001	-0.000000	0.000000	0.000000
45.423547	18.322641	14.445187	-0.049654	-0.113454	2.785235	0.000000	0.001561	0.000000	0.000001	-0.000000	0.000000	0.000000
45.720870	18.357004	14.518851	-0.113884	-0.096367	2.785699	0.000000	0.008840	0.000000	0.000001	-0.000000	0.000000	0.000000
46.269930	18.172961	14.905542	0.447097	-0.612069	2.767982	0.000000	-0.073283	0.000000	0.000001	-0.000000	0.000000	0.000000
46.818990	17.386668	15.879009	0.976497	-1.171367	2.705465	0.000000	-0.154106	0.000000	0.000001	-0.000000	0.000000	0.000000
47.368050	16.053665	17.508591	1.436922	-1.814100	2.599257	0.000000	-0.232195	0.000000	0.000001	-0.000000	0.000000	0.000000
47.917110	14.268109	19.910359	1.795851	-2.586047	2.451243	0.000000	-0.306166	0.000000	0.000001	-0.000000	0.000000	0.000000
48.363070	12.878496	22.045822	1.331191	-2.182286	2.329998	0.000000	-0.237869	0.000000	0.000001	-0.000000	0.000000	0.000000
48.804030	11.884678	23.755663	0.931118	-1.680503	2.239566	0.000000	-0.172678	0.000000	0.000000	-0.000000	0.000000	0.000000
49.244990	11.223672	24.987437	0.573585	-1.102258	2.177421	0.000000	-0.109455	0.000000	0.000000	-0.000000	0.000000	0.000000
49.685950	10.865278	25.685098	0.242257	-0.473862	2.142854	0.000000	-0.047477	0.000000	0.000000	-0.000000	0.000000	0.000000
50.128160	10.793251	25.816620	-0.051651	0.112736	2.135481	0.000000	0.008722	0.000000	0.000000	-0.000000	0.000000	0.000000
50.425482	10.832178	25.753050	-0.079272	0.101073	2.138075	0.000000	0.008722	0.000000	0.000000	-0.000000	0.000000	0.000000
50.758816	10.895348	25.690027	-0.110238	0.087997	2.140982	0.000000	0.008722	0.000000	-0.000000	-0.000000	0.000000	0.000000
51.092149	10.979161	25.635721	-0.141203	0.074921	2.143890	0.000000	0.008722	0.000000	-0.000000	-0.000000	0.000000	0.000000
51.426732	11.083825	25.590496	-0.082366	-0.145806	2.146787	0.000000	-0.008694	0.000000	-0.000000	-0.000000	0.000000	0.000000
51.724055	11.140833	25.680727	-0.082052	-0.220649	2.144202	0.000000	-0.013952	0.000000	-0.000000	-0.000000	0.000000	0.000000
52.165015	11.358633	25.589640	-0.413742	0.426429	2.151638	0.000000	0.047710	0.000000	-0.000000	-0.000000	0.000000	0.000000
52.605975	11.876154	24.934291	-0.764335	1.054104	2.186358	0.000000	0.109916	0.000000	-0.000001	-0.000000	0.000000	0.000000
53.046935	12.717042	23.744497	-1.149848	1.633818	2.248759	0.000000	0.173373	0.000000	-0.000001	-0.000000	0.000000	0.000000
53.487895	13.919714	22.074394	-1.587894	2.139194	2.339549	0.000000	0.238805	0.000000	-0.000001	-0.000000	0.000000	0.000000
53.933855	15.559729	19.974998	-2.102722	2.548574	2.461270	0.000000	0.307356	0.000000	-0.000001	-0.000000	0.000000	0.000000
54.482915	17.671154	17.612718	-1.720042	1.779230	2.609847	0.000000	0.233051	0.000000	-0.000001	-0.000000	0.000000	0.000000
55.031975	19.292742	16.021138	-1.215866	1.136616	2.716429	0.000000	0.154613	0.000000	-0.000001	-0.000000	0.000000	0.000000
55.581035	20.309953	15.086895	-0.625808	0.574960	2.779127	0.000000	0.073432	0.000000	-0.000002	-0.000000	0.000000	0.000000
56.130095	20.650935	14.743443	0.008455	0.054258	2.796827	0.000000	-0.009051	0.000000	-0.000002	-0.000000	0.000000	0.000000
56.428668	20.682433	14.694138	-0.059991	0.072355	2.796307	0.000000	-0.001744	0.000000	-0.000002	-0.000000	0.000000	0.000000
56.762001	20.727818	14.653503	-0.076166	0.049552	2.795726	0.000000	-0.001744	0.000000	-0.000002	-0.000000	0.000000	0.000000
57.095334	20.783987	14.628069	-0.092341	0.026748	2.795145	0.000000	-0.001744	0.000000	-0.000002	-0.000000	0.000000	0.000000
57.429918	20.851211	14.617829	-0.108576	0.003859	2.794561	0.000000	-0.001744	0.000000	-0.000002	-0.000000	0.000000	0.000000
57.727240	20.920064	14.621582	-0.177665	0.021723	2.794043	0.000000	0.005557	0.000000	-0.000002	-0.000000	0.000000	0.000000
58.276300	20.758212	14.878560	0.470699	-0.492519	2.774454	0.000000	-0.076806	0.000000	-0.000002	-0.000000	0.000000	0.000000
58.825360	19.898503	15.716072	1.085816	-1.041841	2.709951	0.000000	-0.157806	0.000000	-0.000002	-0.000000	0.000000	0.000000
59.374420	18.401662	17.193772	1.624235	-1.665372	2.601679	0.000000	-0.236007	0.000000	-0.000002	0.000000	0.000000	0.000000
59.923480	16.373419	19.416913	2.047927	-2.407524	2.451556	0.000000	-0.310022	0.000000	-0.000002	0.000000	0.000000	0.000000
60.369440	14.785855	21.392919	1.524559	-2.004679	2.328589	0.000000	-0.241740	0.000000	-0.000002	0.000000	0.000000	0.000000
60.810400	13.643862	22.949554	1.075054	-1.511993	2.236439	0.000000	-0.176608	0.000000	-0.000002	-0.000000	0.000000	0.000000
61.251360	12.875222	24.039569	0.674665	-0.950513	2.172540	0.000000	-0.113487	0.000000	-0.000002	-0.000000	0.000000	0.000000
61.692320	12.444818	24.613368	0.305100	-0.345786	2.136163	0.000000	-0.051659	0.000000	-0.000002	-0.000000	0.000000	0.000000
62.134530	12.333036	24.644310	-0.020383	0.214184	2.126900	0.000000	0.004365	0.000000	-0.000002	-0.000000	0.000000	0.000000
62.431853	12.352327	24.520698	-0.044501	0.201566	2.128198	0.000000	0.004365	0.000000	-0.000002	-0.000000	0.000000	0.000000
62.765186	12.391007	24.391036	-0.071539	0.187420	2.129653	0.000000	0.004365	0.000000	-0.000002	-0.000000	0.000000	0.000000
63.098520	12.447713	24.270805	-0.098578	0.173274	2.131108	0.000000	0.004365	0.000000	-0.000002	-0.000000	0.000000	0.000000
63.433103	12.522759	24.159607	-0.125719	0.159074	2.132569	0.000000	0.004365	0.000000	-0.000002	-0.000000	0.000000	0.000000
63.730426	12.604688	24.068765	-0.118925	0.087431	2.133866	0.000000	-0.000868	0.000000	-0.000003	-0.000000	0.000000	0.000000
64.171386	12.870040	23.726576	-0.485117	0.685626	2.147024	0.000000	0.060601	0.000000	-0.000003	-0.000000	0.000000	0.000000
64.612346	13.466858	22.868620	-0.873471	1.252625	2.187413	0.000000	0.122761	0.000000	-0.000003	-0.000000	0.000000	0.000000
65.053306	14.422411	21.533934	-1.301733	1.762631	2.255495	0.000000	0.186319	0.000000	-0.000003	-0.000000	0.000000	0.000000
65.494266	15.780355	19.783245	-1.789466	2.192438	2.352043	0.000000	0.251999	0.000000	-0.000003	-0.000000	0.000000	0.000000
65.940226	17.625896	17.671427	-2.363649	2.523248	2.479731	0.000000	0.320951	0.000000	-0.000003	-0.000001	0.000000	0.000000
66.489286	19.991555	15.308896	-1.919409	1.805015	2.635587	0.000000	0.245930	0.000000	-0.000004	-0.000000	0.000000	0.000000
67.038346	21.791596	13.660266	-1.339590	1.215350	2.748991	0.000000	0.166547	0.000000	-0.000004	-0.000000	0.000000	0.000000
67.587406	22.898874	12.608109	-0.665150	0.712251	2.817933	0.000000	0.084210	0.000000	-0.000004	-0.000000	0.000000	0.000000
68.136466	23.235175	12.077481	0.056272	0.259884	2.841190	0.000000	0.000379	0.000000	-0.000004	-0.000000	0.000000	0.000000
68.435038	23.241663	11.911456	-0.017289	0.264620	2.843520	0.000000	0.007803	0.000000	-0.000004	-0.000000	0.000000	0.000000
68.768372	23.257971	11.745024	-0.031635	0.234676	2.846121	0.000000	0.007803	0.000000	-0.000004	-0.000000	0.000000	0.000000
69.101705	23.283843	11.598554	-0.045982	0.204732	2.848722	0.000000	0.007803	0.000000	-0.000004	-0.000000	0.000000	0.000000
69.436288	23.319431	11.471611	-0.060382	0.174676	2.851333	0.000000	0.007803	0.000000	-0.000004	-0.000000	0.000000	0.000000
69.733611	23.359141	11.375681	-0.134214	0.177691	2.853653	0.000000	0.015259	0.000000	-0.000004	-0.000000	0.000000	0.000000
70.282671	23.105351	11.408311	0.593705	-0.237471	2.838847	0.000000	-0.069112	0.000000	-0.000004	0.000000	0.000000	0.000000
