#ParticleID	Turn	x[m]	xp	y[m]	yp	z[m]	dE[GeV]# s	beta_x	beta_y	alpha_x	alpha_y	D_x	D_y	D_px	D_py	orbit_x	orbit_px	orbit_y	orbit_py
0.300000	11.802512	25.062252	-0.009993	-0.026731	2.618338	0.000000	-0.000074	0.000000	-0.000001	0.000002	0.000000	0.000000
0.601250	11.816223	25.081981	-0.035520	-0.038760	2.618315	0.000000	-0.000074	0.000000	-0.000001	0.000002	0.000000	0.000000
0.898573	11.844835	25.108560	-0.031666	-0.112205	2.618293	0.000000	-0.006495	0.000000	-0.000000	0.000002	0.000000	0.000000
1.339533	12.024759	24.928970	-0.377908	0.517924	2.631722	0.000000	0.067467	0.000000	0.000001	0.000002	0.000000	0.000000
1.780493	12.516471	24.201966	-0.741416	1.124488	2.677904	0.000000	0.142197	0.000000	0.000001	0.000002	0.000000	0.000000
2.221453	13.342436	22.960625	-1.138797	1.679888	2.757364	0.000000	0.218546	0.000000	0.000002	0.000002	0.000000	0.000000
2.662413	14.540391	21.261426	-1.588206	2.158855	2.871007	0.000000	0.297384	0.000000	0.000003	0.000002	0.000000	0.000000
3.108373	16.185779	19.156767	-2.114460	2.540729	3.021989	0.000000	0.380099	0.000000	0.000004	0.000002	0.000000	0.000000
3.657433	18.295765	16.792862	-1.705696	1.790053	3.205414	0.000000	0.287062	0.000000	0.000005	0.000002	0.000000	0.000000
4.206493	19.887660	15.178857	-1.176450	1.166877	3.336280	0.000000	0.188933	0.000000	0.000006	0.000002	0.000000	0.000000
4.755553	20.849021	14.199791	-0.564106	0.626816	3.412267	0.000000	0.087453	0.000000	0.000007	0.000002	0.000000	0.000000
5.304613	21.111943	13.785927	0.088084	0.131401	3.432028	0.000000	-0.015578	0.000000	0.000008	0.000001	0.000000	0.000000
5.603185	21.096508	13.692601	0.018769	0.145154	3.430053	0.000000	-0.006612	0.000000	0.000009	0.000001	0.000000	0.000000
5.936519	21.089264	13.604118	0.002963	0.120297	3.427849	0.000000	-0.006612	0.000000	0.000009	0.000001	0.000000	0.000000
6.269852	21.092557	13.532205	-0.012843	0.095440	3.425644	0.000000	-0.006612	0.000000	0.000010	0.000001	0.000000	0.000000
6.604435	21.106460	13.476688	-0.028708	0.070490	3.423432	0.000000	-0.006612	0.000000	0.000010	0.000001	0.000000	0.000000
6.901758	21.127723	13.441364	-0.098005	0.083435	3.421466	0.000000	0.002327	0.000000	0.000010	0.000001	0.000000	0.000000
7.450818	20.875305	13.610725	0.555012	-0.393713	3.394544	0.000000	-0.100246	0.000000	0.000011	0.000001	0.000000	0.000000
7.999878	19.923178	14.316284	1.168826	-0.898904	3.311709	0.000000	-0.201041	0.000000	0.000012	0.000001	0.000000	0.000000
8.548938	18.338597	15.608297	1.700079	-1.468121	3.174431	0.000000	-0.298270	0.000000	0.000012	0.000000	0.000000	0.000000
9.097998	16.233488	17.578790	2.111248	-2.141910	2.985144	0.000000	-0.390208	0.000000	0.000012	-0.000000	0.000000	0.000000
9.543958	14.591175	19.334563	1.584493	-1.778512	2.829432	0.000000	-0.308510	0.000000	0.000012	0.000000	0.000000	0.000000
9.984918	13.396778	20.712933	1.134412	-1.335430	2.710636	0.000000	-0.230810	0.000000	0.000012	0.000001	0.000000	0.000000
10.425878	12.575049	21.672150	0.736159	-0.831586	2.625490	0.000000	-0.155739	0.000000	0.000013	0.000001	0.000000	0.000000
10.866838	12.088445	22.168573	0.371539	-0.289906	2.573026	0.000000	-0.082441	0.000000	0.000013	0.000001	0.000000	0.000000
11.309048	11.914602	22.179087	0.053003	0.210521	2.552624	0.000000	-0.016341	0.000000	0.000014	0.000002	0.000000	0.000000
11.606371	11.890525	22.058063	0.027978	0.196521	2.547765	0.000000	-0.016341	0.000000	0.000014	0.000002	0.000000	0.000000
12.086371	11.883058	21.880251	-0.012422	0.173920	2.539921	0.000000	-0.016341	0.000000	0.000015	0.000002	0.000000	0.000000
12.566371	11.914375	21.724137	-0.052822	0.151319	2.532076	0.000000	-0.016341	0.000000	0.000016	0.000002	0.000000	0.000000
13.046371	11.984476	21.589719	-0.093222	0.128718	2.524231	0.000000	-0.016341	0.000000	0.000016	0.000002	0.000000	0.000000
13.526371	12.093360	21.476998	-0.133622	0.106117	2.516387	0.000000	-0.016341	0.000000	0.000017	0.000002	0.000000	0.000000
14.007621	12.241464	21.385766	-0.174127	0.083457	2.508522	0.000000	-0.016341	0.000000	0.000018	0.000002	0.000000	0.000000
14.304943	12.352448	21.340301	-0.168865	0.017134	2.503663	0.000000	-0.022480	0.000000	0.000018	0.000001	0.000000	0.000000
14.745903	12.659844	21.091643	-0.530886	0.544622	2.509377	0.000000	0.048427	0.000000	0.000019	0.000002	0.000000	0.000000
15.186863	13.295962	20.386974	-0.917161	1.047330	2.546450	0.000000	0.119885	0.000000	0.000020	0.000002	0.000000	0.000000
15.627823	14.289865	19.258357	-1.345339	1.502385	2.615305	0.000000	0.192709	0.000000	0.000021	0.000003	0.000000	0.000000
16.068783	15.686960	17.757141	-1.834982	1.889083	2.716724	0.000000	0.267728	0.000000	0.000023	0.000004	0.000000	0.000000
16.514743	17.574741	15.930134	-2.413219	2.190571	2.853557	0.000000	0.346258	0.000000	0.000024	0.000004	0.000000	0.000000
17.063803	19.999460	13.890205	-1.976763	1.546671	3.019949	0.000000	0.258954	0.000000	0.000026	0.000003	0.000000	0.000000
17.612863	21.864922	12.493073	-1.400678	1.012936	3.137072	0.000000	0.167057	0.000000	0.000028	0.000002	0.000000	0.000000
18.161923	23.039361	11.639226	-0.725656	0.551351	3.202850	0.000000	0.072196	0.000000	0.000029	0.000002	0.000000	0.000000
18.710983	23.439818	11.267844	0.000623	0.129037	3.216116	0.000000	-0.023944	0.000000	0.000030	0.000001	0.000000	0.000000
19.009556	23.479826	11.181324	-0.073391	0.131308	3.211475	0.000000	-0.015543	0.000000	0.000030	0.000001	0.000000	0.000000
19.342889	23.533511	11.103894	-0.087664	0.100982	3.206294	0.000000	-0.015543	0.000000	0.000030	0.000001	0.000000	0.000000
19.676223	23.596711	11.046681	-0.101937	0.070656	3.201112	0.000000	-0.015543	0.000000	0.000030	0.000001	0.000000	0.000000
20.010806	23.670011	11.009448	-0.233538	0.094765	3.195931	0.000000	0.000291	0.000000	0.000030	0.000001	0.000000	0.000000
20.308129	23.812821	10.961199	-0.308987	0.096148	3.196018	0.000000	0.008640	0.000000	0.000031	0.000001	0.000000	0.000000
20.857189	23.741400	11.077474	0.438295	-0.309169	3.174551	0.000000	-0.086717	0.000000	0.000031	-0.000000	0.000000	0.000000
21.406249	22.861586	11.648244	1.154619	-0.736507	3.101075	0.000000	-0.180536	0.000000	0.000031	-0.000001	0.000000	0.000000
21.955309	21.235525	12.714164	1.789385	-1.216306	2.976891	0.000000	-0.271152	0.000000	0.000030	-0.000002	0.000000	0.000000
22.504369	18.978073	14.351157	2.297758	-1.782739	2.804203	0.000000	-0.356959	0.000000	0.000028	-0.000003	0.000000	0.000000
22.950329	17.198880	15.821004	1.705902	-1.499271	2.662302	0.000000	-0.279775	0.000000	0.000027	-0.000002	0.000000	0.000000
23.391289	15.923793	16.992999	1.196681	-1.148440	2.555250	0.000000	-0.206232	0.000000	0.000026	-0.000002	0.000000	0.000000
23.832249	15.072085	17.831277	0.742133	-0.745355	2.480079	0.000000	-0.135038	0.000000	0.000026	-0.000001	0.000000	0.000000
24.273209	14.604841	18.297696	0.321491	-0.308357	2.435933	0.000000	-0.065381	0.000000	0.000025	-0.000000	0.000000	0.000000
24.715418	14.500839	18.370792	-0.048998	0.097562	2.422306	0.000000	-0.002409	0.000000	0.000025	0.000000	0.000000	0.000000
25.012741	14.536086	18.317635	-0.069551	0.081224	2.421590	0.000000	-0.002409	0.000000	0.000026	0.000000	0.000000	0.000000
25.346075	14.590134	18.269592	-0.092593	0.062906	2.420787	0.000000	-0.002409	0.000000	0.000026	0.000000	0.000000	0.000000
25.679408	14.659543	18.233760	-0.115636	0.044589	2.419984	0.000000	-0.002409	0.000000	0.000026	0.000000	0.000000	0.000000
26.013991	14.744362	18.210444	-0.019148	-0.121529	2.419154	0.000000	-0.022034	0.000000	0.000026	0.000000	0.000000	0.000000
26.311314	14.761746	18.287637	-0.003130	-0.182933	2.412602	0.000000	-0.027949	0.000000	0.000026	0.000000	0.000000	0.000000
26.752274	14.946356	18.250672	-0.417111	0.266443	2.415383	0.000000	0.040572	0.000000	0.000026	0.000001	0.000000	0.000000
27.193234	15.503055	17.821245	-0.850150	0.703696	2.448451	0.000000	0.109556	0.000000	0.000026	0.000001	0.000000	0.000000
27.634194	16.457280	17.018895	-1.322029	1.108932	2.512184	0.000000	0.179787	0.000000	0.000027	0.000002	0.000000	0.000000
28.075154	17.852625	15.880128	-1.854308	1.463712	2.607308	0.000000	0.252066	0.000000	0.000028	0.000003	0.000000	0.000000
28.521114	19.777077	14.439600	-2.476279	1.752806	2.736508	0.000000	0.327660	0.000000	0.000030	0.000004	0.000000	0.000000
29.070174	22.223050	12.834678	-1.952184	1.187484	2.893757	0.000000	0.244296	0.000000	0.000031	0.000003	0.000000	0.000000
29.619234	24.013914	11.800736	-1.290196	0.706743	3.003976	0.000000	0.156600	0.000000	0.000033	0.000002	0.000000	0.000000
30.168294	25.023171	11.264130	-0.537075	0.276343	3.065210	0.000000	0.066126	0.000000	0.000033	0.000000	0.000000	0.000000
30.717354	25.179532	11.186638	0.253982	-0.134374	3.076374	0.000000	-0.025521	0.000000	0.000033	-0.000001	0.000000	0.000000
31.015927	25.070808	11.257487	0.175933	-0.132139	3.071153	0.000000	-0.017486	0.000000	0.000033	-0.000001	0.000000	0.000000
31.349260	24.958089	11.355622	0.162226	-0.162266	3.065325	0.000000	-0.017486	0.000000	0.000033	-0.000001	0.000000	0.000000
31.682593	24.854508	11.473841	0.148518	-0.192393	3.059497	0.000000	-0.017486	0.000000	0.000033	-0.000001	0.000000	0.000000
32.017177	24.759727	11.612701	0.134760	-0.222632	3.053646	0.000000	-0.017486	0.000000	0.000032	-0.000001	0.000000	0.000000
32.314499	24.683228	11.753079	0.058058	-0.218804	3.048448	0.000000	-0.009523	0.000000	0.000032	-0.000000	0.000000	0.000000
32.863559	24.196533	12.232519	0.823110	-0.659552	3.018348	0.000000	-0.099958	0.000000	0.000032	-0.000001	0.000000	0.000000
33.412619	22.896827	13.218755	1.530021	-1.147277	2.939009	0.000000	-0.188620	0.000000	0.000031	-0.000002	0.000000	0.000000
33.961679	20.875917	14.782035	2.128859	-1.716721	2.811837	0.000000	-0.273937	0.000000	0.000029	-0.000003	0.000000	0.000000
34.510739	18.276550	17.033706	2.577325	-2.408442	2.639089	0.000000	-0.354395	0.000000	0.000027	-0.000004	0.000000	0.000000
34.956699	16.255374	19.047784	1.971103	-2.088974	2.497380	0.000000	-0.281492	0.000000	0.000025	-0.000004	0.000000	0.000000
35.397659	14.748132	20.713976	1.459954	-1.675202	2.388631	0.000000	-0.212222	0.000000	0.000024	-0.000003	0.000000	0.000000
35.838619	13.660676	21.980122	1.015508	-1.185210	2.309865	0.000000	-0.145370	0.000000	0.000022	-0.000002	0.000000	0.000000
36.279579	12.943325	22.788613	0.617457	-0.641292	2.260186	0.000000	-0.080173	0.000000	0.000021	-0.000002	0.000000	0.000000
36.721789	12.562609	23.102975	0.278311	-0.124893	2.239000	0.000000	-0.021379	0.000000	0.000021	-0.000001	0.000000	0.000000
37.019112	12.404694	23.181128	0.252811	-0.137963	2.232644	0.000000	-0.021379	0.000000	0.000020	-0.000001	0.000000	0.000000
37.352445	12.245683	23.277988	0.224222	-0.152616	2.225518	0.000000	-0.021379	0.000000	0.000020	-0.000001	0.000000	0.000000
37.685779	12.105732	23.384616	0.195633	-0.167269	2.218392	0.000000	-0.021379	0.000000	0.000019	-0.000001	0.000000	0.000000
38.020362	11.984423	23.501469	0.166936	-0.181978	2.211239	0.000000	-0.021379	0.000000	0.000019	-0.000001	0.000000	0.000000
38.317684	11.892737	23.613567	0.170595	-0.252946	2.204883	0.000000	-0.026785	0.000000	0.000018	-0.000001	0.000000	0.000000
38.758644	11.893868	23.575078	-0.173170	0.339898	2.206996	0.000000	0.036373	0.000000	0.000018	-0.000001	0.000000	0.000000
39.199604	12.200502	23.018596	-0.524848	0.917277	2.237023	0.000000	0.099945	0.000000	0.000017	-0.000001	0.000000	0.000000
39.640564	12.826650	21.969442	-0.900504	1.452920	2.295307	0.000000	0.164656	0.000000	0.000017	-0.000000	0.000000	0.000000
40.081524	13.800918	20.475350	-1.317302	1.922456	2.382511	0.000000	0.231242	0.000000	0.000017	0.000000	0.000000	0.000000
40.527484	15.185395	18.581721	-1.798111	2.305810	2.501101	0.000000	0.300866	0.000000	0.000018	0.000001	0.000000	0.000000
41.076544	16.952006	16.453669	-1.400361	1.592876	2.645772	0.000000	0.225334	0.000000	0.000018	0.000000	0.000000	0.000000
41.625604	18.224606	15.041982	-0.903696	0.993399	2.747811	0.000000	0.145805	0.000000	0.000018	-0.000000	0.000000	0.000000
42.174664	18.913302	14.246107	-0.343199	0.464679	2.805409	0.000000	0.063690	0.000000	0.000018	-0.000001	0.000000	0.000000
42.723724	18.969451	14.009357	0.241541	-0.030942	2.817544	0.000000	-0.019555	0.000000	0.000017	-0.000001	0.000000	0.000000
43.022297	18.859681	14.012342	0.175664	-0.015656	2.813904	0.000000	-0.012194	0.000000	0.000016	-0.000001	0.000000	0.000000
43.502297	18.703637	14.043819	0.149428	-0.049920	2.808051	0.000000	-0.012194	0.000000	0.000016	-0.000001	0.000000	0.000000
43.982297	18.572780	14.108189	0.123191	-0.084184	2.802199	0.000000	-0.012194	0.000000	0.000015	-0.000001	0.000000	0.000000
44.462297	18.467109	14.205452	0.096955	-0.118448	2.796347	0.000000	-0.012194	0.000000	0.000014	-0.000001	0.000000	0.000000
44.942297	18.386626	14.335609	0.070718	-0.152712	2.790494	0.000000	-0.012194	0.000000	0.000014	-0.000001	0.000000	0.000000
45.423547	18.331446	14.498947	-0.046411	-0.115228	2.784644	0.000000	0.001603	0.000000	0.000013	-0.000001	0.000000	0.000000
45.720870	18.363877	14.573645	-0.110641	-0.097933	2.785121	0.000000	0.008879	0.000000	0.000013	-0.000001	0.000000	0.000000
46.269930	18.176174	14.962980	0.450478	-0.615345	2.767431	0.000000	-0.073225	0.000000	0.000012	-0.000002	0.000000	0.000000
46.818990	17.386201	15.941085	0.979777	-1.176587	2.704951	0.000000	-0.154031	0.000000	0.000011	-0.000002	0.000000	0.000000
47.368050	16.049758	17.577628	1.439870	-1.821634	2.598791	0.000000	-0.232104	0.000000	0.000009	-0.000002	0.000000	0.000000
47.917110	14.261243	19.989178	1.798258	-2.596433	2.450832	0.000000	-0.306061	0.000000	0.000008	-0.000003	0.000000	0.000000
48.363070	12.869537	22.133156	1.333497	-2.190911	2.329632	0.000000	-0.237774	0.000000	0.000007	-0.000003	0.000000	0.000000
48.804030	11.873690	23.849684	0.933431	-1.686982	2.239241	0.000000	-0.172592	0.000000	0.000006	-0.000002	0.000000	0.000000
49.244990	11.210602	25.086113	0.576010	-1.106297	2.177133	0.000000	-0.109376	0.000000	0.000005	-0.000002	0.000000	0.000000
49.685950	10.849979	25.786187	0.244905	-0.475276	2.142599	0.000000	-0.047406	0.000000	0.000004	-0.000002	0.000000	0.000000
50.128160	10.775467	25.917769	-0.048703	0.113765	2.135258	0.000000	0.008788	0.000000	0.000003	-0.000002	0.000000	0.000000
50.425482	10.812651	25.853574	-0.076361	0.102145	2.137872	0.000000	0.008788	0.000000	0.000002	-0.000002	0.000000	0.000000
50.758816	10.873894	25.789820	-0.107369	0.089117	2.140802	0.000000	0.008788	0.000000	0.000002	-0.000002	0.000000	0.000000
51.092149	10.955809	25.734751	-0.138376	0.076090	2.143732	0.000000	0.008788	0.000000	0.000001	-0.000002	0.000000	0.000000
51.426732	11.058595	25.688731	-0.079786	-0.145386	2.146651	0.000000	-0.008627	0.000000	0.000000	-0.000002	0.000000	0.000000
51.724055	11.114084	25.778698	-0.079588	-0.220423	2.144086	0.000000	-0.013885	0.000000	-0.000000	-0.000002	0.000000	0.000000
52.165015	11.329424	25.686268	-0.410607	0.429236	2.151552	0.000000	0.047775	0.000000	-0.000001	-0.000002	0.000000	0.000000
52.605975	11.843833	25.027347	-0.760385	1.059366	2.186302	0.000000	0.109979	0.000000	-0.000002	-0.000002	0.000000	0.000000
53.046935	12.680813	23.831915	-1.144903	1.641295	2.248730	0.000000	0.173435	0.000000	-0.000003	-0.000002	0.000000	0.000000
53.487895	13.878604	22.154363	-1.581729	2.148546	2.339549	0.000000	0.238867	0.000000	-0.000004	-0.000002	0.000000	0.000000
53.933855	15.512466	20.045940	-2.095042	2.559379	2.461297	0.000000	0.307418	0.000000	-0.000005	-0.000002	0.000000	0.000000
54.482915	17.616087	17.673350	-1.713592	1.787313	2.609909	0.000000	0.233112	0.000000	-0.000006	-0.000002	0.000000	0.000000
55.031975	19.231481	16.074117	-1.211103	1.142554	2.716525	0.000000	0.154671	0.000000	-0.000007	-0.000002	0.000000	0.000000
55.581035	20.244547	15.134332	-0.623067	0.579176	2.779254	0.000000	0.073486	0.000000	-0.000008	-0.000002	0.000000	0.000000
56.130095	20.583725	14.787055	0.008979	0.057051	2.796984	0.000000	-0.009002	0.000000	-0.000009	-0.000001	0.000000	0.000000
56.428668	20.614821	14.735998	-0.059341	0.075314	2.796479	0.000000	-0.001693	0.000000	-0.000010	-0.000001	0.000000	0.000000
56.762001	20.659791	14.693371	-0.075568	0.052565	2.795915	0.000000	-0.001693	0.000000	-0.000010	-0.000001	0.000000	0.000000
57.095334	20.715578	14.665911	-0.091794	0.029817	2.795351	0.000000	-0.001693	0.000000	-0.000011	-0.000001	0.000000	0.000000
57.429918	20.782454	14.653598	-0.108082	0.006983	2.794785	0.000000	-0.001693	0.000000	-0.000011	-0.000001	0.000000	0.000000
57.727240	20.851027	14.655479	-0.177040	0.024987	2.794282	0.000000	0.005608	0.000000	-0.000011	-0.000001	0.000000	0.000000
58.276300	20.689763	14.909389	0.469011	-0.490162	2.774720	0.000000	-0.076762	0.000000	-0.000012	-0.000001	0.000000	0.000000
58.825360	19.833129	15.744732	1.081934	-1.040224	2.710239	0.000000	-0.157771	0.000000	-0.000013	-0.000001	0.000000	0.000000
59.374420	18.341636	17.221007	1.618435	-1.664379	2.601983	0.000000	-0.235982	0.000000	-0.000013	-0.000000	0.000000	0.000000
59.923480	16.320633	19.443367	2.040618	-2.407084	2.451871	0.000000	-0.310007	0.000000	-0.000013	0.000000	0.000000	0.000000
60.369440	14.738867	21.418563	1.518823	-2.003307	2.328912	0.000000	-0.241716	0.000000	-0.000013	-0.000000	0.000000	0.000000
60.810400	13.601343	22.973601	1.070617	-1.509759	2.236775	0.000000	-0.176576	0.000000	-0.000013	-0.000001	0.000000	0.000000
61.251360	12.836120	24.061301	0.671324	-0.947518	2.172892	0.000000	-0.113446	0.000000	-0.000013	-0.000001	0.000000	0.000000
61.692320	12.408237	24.632171	0.302702	-0.342165	2.136536	0.000000	-0.051609	0.000000	-0.000014	-0.000001	0.000000	0.000000
62.134530	12.298200	24.659694	-0.022030	0.218221	2.127297	0.000000	0.004423	0.000000	-0.000014	-0.000002	0.000000	0.000000
62.431853	12.318491	24.533685	-0.046217	0.205589	2.128613	0.000000	0.004423	0.000000	-0.000015	-0.000002	0.000000	0.000000
62.765186	12.358342	24.401346	-0.073335	0.191428	2.130088	0.000000	0.004423	0.000000	-0.000015	-0.000002	0.000000	0.000000
63.098520	12.416271	24.278448	-0.100452	0.177267	2.131563	0.000000	0.004423	0.000000	-0.000016	-0.000002	0.000000	0.000000
63.433103	12.492597	24.164582	-0.127671	0.163053	2.133043	0.000000	0.004423	0.000000	-0.000016	-0.000002	0.000000	0.000000
63.730426	12.575708	24.071379	-0.121015	0.091382	2.134358	0.000000	-0.000812	0.000000	-0.000017	-0.000001	0.000000	0.000000
64.171386	12.842629	23.725707	-0.486600	0.689543	2.147544	0.000000	0.060671	0.000000	-0.000018	-0.000002	0.000000	0.000000
64.612346	13.440514	22.864378	-0.874417	1.256330	2.187968	0.000000	0.122844	0.000000	-0.000019	-0.000002	0.000000	0.000000
65.053306	14.396680	21.526580	-1.302183	1.765955	2.256090	0.000000	0.186417	0.000000	-0.000020	-0.000003	0.000000	0.000000
65.494266	15.754810	19.773184	-1.789443	2.195231	2.352687	0.000000	0.252113	0.000000	-0.000021	-0.000003	0.000000	0.000000
65.940226	17.600117	17.659163	-2.363148	2.525376	2.480430	0.000000	0.321082	0.000000	-0.000023	-0.000004	0.000000	0.000000
66.489286	19.965809	15.294323	-1.919973	1.807120	2.636353	0.000000	0.246038	0.000000	-0.000025	-0.000003	0.000000	0.000000
67.038346	21.767039	13.643327	-1.341181	1.217582	2.749811	0.000000	0.166629	0.000000	-0.000026	-0.000002	0.000000	0.000000
67.587406	22.876578	12.588577	-0.667656	0.714769	2.818792	0.000000	0.084265	0.000000	-0.000028	-0.000002	0.000000	0.000000
68.136466	23.216054	12.054946	0.053030	0.262867	2.842071	0.000000	0.000406	0.000000	-0.000028	-0.000001	0.000000	0.000000
68.435038	23.224458	11.887199	-0.020505	0.267458	2.844410	0.000000	0.007833	0.000000	-0.000028	-0.000001	0.000000	0.000000
68.768372	23.242914	11.718909	-0.034864	0.237411	2.847021	0.000000	0.007833	0.000000	-0.000029	-0.000001	0.000000	0.000000
69.101705	23.270943	11.570651	-0.049223	0.207364	2.849633	0.000000	0.007833	0.000000	-0.000029	-0.000001	0.000000	0.000000
69.436288	23.308703	11.441981	-0.063635	0.177204	2.852254	0.000000	0.007833	0.000000	-0.000029	-0.000001	0.000000	0.000000
69.733611	23.350352	11.344577	-0.137468	0.180051	2.854583	0.000000	0.015294	0.000000	-0.000029	-0.000001	0.000000	0.000000
70.282671	23.100264	11.374129	0.590255	-0.234191	2.839788	0.000000	-0.069108	0.000000	-0.000029	0.000000	0.000000	0.000000
