#ParticleID	Turn	x[m]	xp	y[m]	yp	z[m]	dE[GeV]# s	beta_x	beta_y	alpha_x	alpha_y	D_x	D_y	D_px	D_py	orbit_x	orbit_px	orbit_y	orbit_py
0.300000	11.823887	24.977743	-0.012250	-0.027630	2.618117	0.000000	0.000011	0.000000	-0.000000	0.000001	0.000000	0.000000
0.601250	11.838944	24.998026	-0.037732	-0.039700	2.618120	0.000000	0.000011	0.000000	-0.000000	0.000001	0.000000	0.000000
0.898573	11.868859	25.025175	-0.033775	-0.112982	2.618123	0.000000	-0.006409	0.000000	0.000000	0.000001	0.000000	0.000000
1.339533	12.050899	24.847241	-0.380619	0.514960	2.631590	0.000000	0.067548	0.000000	0.000000	0.000001	0.000000	0.000000
1.780493	12.545312	24.123769	-0.744853	1.119472	2.677808	0.000000	0.142275	0.000000	0.000001	0.000001	0.000000	0.000000
2.221453	13.374684	22.887676	-1.143116	1.673048	2.757302	0.000000	0.218622	0.000000	0.000001	0.000001	0.000000	0.000000
2.662413	14.576908	21.195202	-1.593605	2.150502	2.870979	0.000000	0.297459	0.000000	0.000001	0.000001	0.000000	0.000000
3.108373	16.227690	19.098532	-2.121197	2.531242	3.021995	0.000000	0.380174	0.000000	0.000001	0.000001	0.000000	0.000000
3.657433	18.344511	16.743727	-1.711336	1.782867	3.205462	0.000000	0.287136	0.000000	0.000002	0.000001	0.000000	0.000000
4.206493	19.941810	15.136589	-1.180595	1.161483	3.336369	0.000000	0.189005	0.000000	0.000002	0.000001	0.000000	0.000000
4.755553	20.906762	14.162645	-0.566462	0.622828	3.412396	0.000000	0.087521	0.000000	0.000002	0.000000	0.000000	0.000000
5.304613	21.171206	13.752522	0.087683	0.128536	3.432192	0.000000	-0.015515	0.000000	0.000002	0.000000	0.000000	0.000000
5.603185	21.156093	13.660969	0.018250	0.142170	3.430238	0.000000	-0.006547	0.000000	0.000003	0.000000	0.000000	0.000000
5.936519	21.149180	13.574486	0.002489	0.117276	3.428055	0.000000	-0.006547	0.000000	0.000003	0.000000	0.000000	0.000000
6.269852	21.152775	13.504600	-0.013272	0.092383	3.425873	0.000000	-0.006547	0.000000	0.000003	0.000000	0.000000	0.000000
6.604435	21.166949	13.451141	-0.029093	0.067396	3.423682	0.000000	-0.006547	0.000000	0.000003	0.000000	0.000000	0.000000
6.901758	21.188429	13.417666	-0.098511	0.080248	3.421735	0.000000	0.002393	0.000000	0.000003	0.000000	0.000000	0.000000
7.450818	20.935449	13.590174	0.556536	-0.396291	3.394847	0.000000	-0.100189	0.000000	0.000003	0.000000	0.000000	0.000000
7.999878	19.980577	14.298317	1.172272	-0.901058	3.312041	0.000000	-0.200995	0.000000	0.000003	0.000000	0.000000	0.000000
8.548938	18.391261	15.592534	1.705205	-1.470006	3.174786	0.000000	-0.298235	0.000000	0.000003	0.000000	0.000000	0.000000
9.097998	16.279762	17.565009	2.117691	-2.143658	2.985515	0.000000	-0.390185	0.000000	0.000003	-0.000000	0.000000	0.000000
9.543958	14.632337	19.322623	1.589552	-1.780875	2.829816	0.000000	-0.308477	0.000000	0.000003	0.000000	0.000000	0.000000
9.984918	13.433997	20.703305	1.138330	-1.338294	2.711036	0.000000	-0.230767	0.000000	0.000003	0.000000	0.000000	0.000000
10.425878	12.609248	21.665224	0.739114	-0.834822	2.625912	0.000000	-0.155685	0.000000	0.000004	0.000000	0.000000	0.000000
10.866838	12.120410	22.164610	0.373667	-0.293367	2.573474	0.000000	-0.082376	0.000000	0.000004	0.000000	0.000000	0.000000
11.309048	11.945014	22.178226	0.054478	0.206991	2.553105	0.000000	-0.016266	0.000000	0.000004	0.000000	0.000000	0.000000
11.606371	11.920042	22.059296	0.029513	0.193011	2.548268	0.000000	-0.016266	0.000000	0.000004	0.000000	0.000000	0.000000
12.086371	11.911055	21.884840	-0.010790	0.170441	2.540460	0.000000	-0.016266	0.000000	0.000004	0.000000	0.000000	0.000000
12.566371	11.940759	21.732050	-0.051094	0.147871	2.532652	0.000000	-0.016266	0.000000	0.000004	0.000000	0.000000	0.000000
13.046371	12.009154	21.600928	-0.091397	0.125300	2.524844	0.000000	-0.016266	0.000000	0.000005	0.000000	0.000000	0.000000
13.526371	12.116241	21.491473	-0.131700	0.102730	2.517036	0.000000	-0.016266	0.000000	0.000005	0.000000	0.000000	0.000000
14.007621	12.262449	21.403486	-0.172109	0.080101	2.509208	0.000000	-0.016266	0.000000	0.000005	0.000000	0.000000	0.000000
14.304943	12.372215	21.360011	-0.166735	0.013742	2.504372	0.000000	-0.022407	0.000000	0.000005	0.000000	0.000000	0.000000
14.745903	12.677907	21.114087	-0.529136	0.541835	2.510123	0.000000	0.048518	0.000000	0.000005	0.000001	0.000000	0.000000
15.186863	13.312619	20.411562	-0.915712	1.045275	2.547241	0.000000	0.119996	0.000000	0.000005	0.000001	0.000000	0.000000
15.627823	14.305350	19.284399	-1.344124	1.501155	2.616150	0.000000	0.192841	0.000000	0.000006	0.000001	0.000000	0.000000
16.068783	15.701456	17.783884	-1.833946	1.888734	2.717633	0.000000	0.267882	0.000000	0.000006	0.000001	0.000000	0.000000
16.514743	17.588374	15.956785	-2.412313	2.191125	2.854542	0.000000	0.346437	0.000000	0.000007	0.000001	0.000000	0.000000
17.063803	20.011703	13.916577	-1.975155	1.546628	3.021025	0.000000	0.259100	0.000000	0.000007	0.000001	0.000000	0.000000
17.612863	21.875062	12.519819	-1.398482	1.012294	3.138220	0.000000	0.167167	0.000000	0.000008	0.000001	0.000000	0.000000
18.161923	23.046835	11.667025	-0.723027	0.550064	3.204048	0.000000	0.072268	0.000000	0.000008	0.000000	0.000000	0.000000
18.710983	23.444252	11.297450	0.003498	0.127013	3.217343	0.000000	-0.023911	0.000000	0.000008	0.000000	0.000000	0.000000
19.009556	23.482554	11.212063	-0.070531	0.129454	3.212714	0.000000	-0.015506	0.000000	0.000008	0.000000	0.000000	0.000000
19.342889	23.534330	11.135837	-0.084797	0.099226	3.207545	0.000000	-0.015506	0.000000	0.000008	0.000000	0.000000	0.000000
19.676223	23.595617	11.079762	-0.099062	0.068998	3.202376	0.000000	-0.015506	0.000000	0.000008	0.000000	0.000000	0.000000
20.010806	23.666990	11.043607	-0.230641	0.093373	3.197208	0.000000	0.000335	0.000000	0.000008	0.000000	0.000000	0.000000
20.308129	23.808073	10.996157	-0.306073	0.094945	3.197308	0.000000	0.008689	0.000000	0.000008	0.000000	0.000000	0.000000
20.857189	23.733555	11.114297	0.440989	-0.311382	3.175857	0.000000	-0.086710	0.000000	0.000008	-0.000000	0.000000	0.000000
21.406249	22.850991	11.688119	1.156903	-0.739887	3.102372	0.000000	-0.180571	0.000000	0.000008	-0.000000	0.000000	0.000000
21.955309	21.222723	12.758496	1.791098	-1.221092	2.978157	0.000000	-0.271229	0.000000	0.000008	-0.000001	0.000000	0.000000
22.504369	18.963762	14.401669	2.298780	-1.789274	2.805415	0.000000	-0.357076	0.000000	0.000008	-0.000001	0.000000	0.000000
22.950329	17.183584	15.876835	1.707099	-1.504615	2.663468	0.000000	-0.279861	0.000000	0.000007	-0.000001	0.000000	0.000000
23.391289	15.907345	17.052927	1.198108	-1.152353	2.556384	0.000000	-0.206288	0.000000	0.000007	-0.000000	0.000000	0.000000
23.832249	15.054254	17.893957	0.743855	-0.747661	2.481194	0.000000	-0.135065	0.000000	0.000007	-0.000000	0.000000	0.000000
24.273209	14.585334	18.361660	0.323586	-0.308950	2.437042	0.000000	-0.065380	0.000000	0.000007	-0.000000	0.000000	0.000000
24.715418	14.479278	18.434508	-0.046480	0.098545	2.423422	0.000000	-0.002383	0.000000	0.000007	0.000000	0.000000	0.000000
25.012741	14.513036	18.380751	-0.067059	0.082259	2.422714	0.000000	-0.002383	0.000000	0.000007	0.000000	0.000000	0.000000
25.346075	14.565432	18.331998	-0.090130	0.064002	2.421919	0.000000	-0.002383	0.000000	0.000007	0.000000	0.000000	0.000000
25.679408	14.633209	18.295416	-0.113201	0.045744	2.421125	0.000000	-0.002383	0.000000	0.000007	0.000000	0.000000	0.000000
26.013991	14.716409	18.271307	-0.016970	-0.120808	2.420304	0.000000	-0.022018	0.000000	0.000007	0.000000	0.000000	0.000000
26.311314	14.732508	18.348054	-0.001053	-0.182310	2.413757	0.000000	-0.027937	0.000000	0.000007	-0.000000	0.000000	0.000000
26.752274	14.914964	18.309818	-0.414286	0.268692	2.416550	0.000000	0.040615	0.000000	0.000007	0.000000	0.000000	0.000000
27.193234	15.468796	17.877726	-0.846447	0.707468	2.449644	0.000000	0.109629	0.000000	0.000007	0.000000	0.000000	0.000000
27.634194	16.419307	17.071439	-1.317279	1.114055	2.513417	0.000000	0.179892	0.000000	0.000007	0.000001	0.000000	0.000000
28.075154	17.809923	15.927643	-1.848295	1.469953	2.608594	0.000000	0.252203	0.000000	0.000008	0.000001	0.000000	0.000000
28.521114	19.728341	14.481151	-2.468714	1.759883	2.737863	0.000000	0.327830	0.000000	0.000008	0.000001	0.000000	0.000000
29.070174	22.166662	12.869381	-1.945899	1.192953	2.895195	0.000000	0.244422	0.000000	0.000008	0.000001	0.000000	0.000000
29.619234	23.951535	11.830134	-1.285636	0.710995	3.005471	0.000000	0.156678	0.000000	0.000009	0.000000	0.000000	0.000000
30.168294	24.956884	11.289386	-0.534561	0.279679	3.066735	0.000000	0.066155	0.000000	0.000009	0.000000	0.000000	0.000000
30.717354	25.111696	11.208621	0.254271	-0.131715	3.077902	0.000000	-0.025541	0.000000	0.000009	-0.000000	0.000000	0.000000
31.015927	25.002712	11.277824	0.176351	-0.129349	3.072677	0.000000	-0.017500	0.000000	0.000009	-0.000000	0.000000	0.000000
31.349260	24.889727	11.374074	0.162605	-0.159400	3.066843	0.000000	-0.017500	0.000000	0.000009	-0.000000	0.000000	0.000000
31.682593	24.785906	11.490357	0.148858	-0.189451	3.061010	0.000000	-0.017500	0.000000	0.000009	-0.000000	0.000000	0.000000
32.017177	24.690912	11.627223	0.135060	-0.219614	3.055155	0.000000	-0.017500	0.000000	0.000009	-0.000000	0.000000	0.000000
32.314499	24.614245	11.765786	0.058491	-0.215679	3.049952	0.000000	-0.009532	0.000000	0.000009	-0.000000	0.000000	0.000000
32.863559	24.128333	12.241915	0.821258	-0.656612	3.019833	0.000000	-0.100015	0.000000	0.000008	-0.000000	0.000000	0.000000
33.412619	22.831864	13.224929	1.526016	-1.144313	2.940449	0.000000	-0.188725	0.000000	0.000008	-0.000001	0.000000	0.000000
33.961679	20.816412	14.784844	2.122984	-1.713522	2.813206	0.000000	-0.274087	0.000000	0.000008	-0.000001	0.000000	0.000000
34.510739	18.224340	17.032771	2.569995	-2.404781	2.640362	0.000000	-0.354588	0.000000	0.000007	-0.000001	0.000000	0.000000
34.956699	16.208974	19.043417	1.965361	-2.084974	2.498573	0.000000	-0.281653	0.000000	0.000007	-0.000001	0.000000	0.000000
35.397659	14.706201	20.706001	1.455525	-1.671050	2.389759	0.000000	-0.212353	0.000000	0.000006	-0.000001	0.000000	0.000000
35.838619	13.622150	21.968486	1.012189	-1.181094	2.310941	0.000000	-0.145473	0.000000	0.000006	-0.000001	0.000000	0.000000
36.279579	12.907294	22.773433	0.615096	-0.637400	2.261221	0.000000	-0.080249	0.000000	0.000006	-0.000001	0.000000	0.000000
36.721789	12.528281	23.084519	0.276722	-0.121366	2.240007	0.000000	-0.021431	0.000000	0.000005	-0.000000	0.000000	0.000000
37.019112	12.371326	23.160574	0.251172	-0.134435	2.233635	0.000000	-0.021431	0.000000	0.000005	-0.000000	0.000000	0.000000
37.352445	12.213426	23.255082	0.222529	-0.149088	2.226492	0.000000	-0.021431	0.000000	0.000005	-0.000000	0.000000	0.000000
37.685779	12.074622	23.359358	0.193885	-0.163740	2.219348	0.000000	-0.021431	0.000000	0.000005	-0.000000	0.000000	0.000000
38.020362	11.954500	23.473848	0.165133	-0.178447	2.212177	0.000000	-0.021431	0.000000	0.000005	-0.000000	0.000000	0.000000
38.317684	11.863901	23.583847	0.168677	-0.249349	2.205806	0.000000	-0.026841	0.000000	0.000005	-0.000000	0.000000	0.000000
38.758644	11.866438	23.542544	-0.174452	0.342658	2.207898	0.000000	0.036341	0.000000	0.000005	-0.000000	0.000000	0.000000
39.199604	12.173945	22.984045	-0.525551	0.919074	2.237916	0.000000	0.099936	0.000000	0.000005	-0.000000	0.000000	0.000000
39.640564	12.800471	21.933762	-0.900661	1.453673	2.296201	0.000000	0.164670	0.000000	0.000004	-0.000000	0.000000	0.000000
40.081524	13.774639	20.439482	-1.316920	1.922131	2.383417	0.000000	0.231279	0.000000	0.000005	0.000000	0.000000	0.000000
40.527484	15.158527	18.546625	-1.797170	2.304413	2.502029	0.000000	0.300927	0.000000	0.000005	0.000000	0.000000	0.000000
41.076544	16.924672	16.419590	-1.400459	1.592410	2.646725	0.000000	0.225365	0.000000	0.000005	0.000000	0.000000	0.000000
41.625604	18.197949	15.007922	-0.904826	0.993830	2.748773	0.000000	0.145805	0.000000	0.000005	-0.000000	0.000000	0.000000
42.174664	18.888421	14.211069	-0.345281	0.466039	2.806362	0.000000	0.063659	0.000000	0.000004	-0.000000	0.000000	0.000000
42.723724	18.947315	13.972275	0.238652	-0.028557	2.818471	0.000000	-0.019616	0.000000	0.000004	-0.000000	0.000000	0.000000
43.022297	18.839239	13.973909	0.172826	-0.013422	2.814813	0.000000	-0.012252	0.000000	0.000004	-0.000000	0.000000	0.000000
43.502297	18.685921	14.003284	0.146587	-0.047777	2.808932	0.000000	-0.012252	0.000000	0.000004	-0.000000	0.000000	0.000000
43.982297	18.557793	14.065641	0.120347	-0.082133	2.803051	0.000000	-0.012252	0.000000	0.000004	-0.000000	0.000000	0.000000
44.462297	18.454855	14.160980	0.094107	-0.116489	2.797170	0.000000	-0.012252	0.000000	0.000004	-0.000000	0.000000	0.000000
44.942297	18.377107	14.289301	0.067867	-0.150845	2.791289	0.000000	-0.012252	0.000000	0.000003	-0.000000	0.000000	0.000000
45.423547	18.324673	14.450887	-0.049231	-0.113692	2.785410	0.000000	0.001548	0.000000	0.000003	-0.000000	0.000000	0.000000
45.720870	18.358784	14.524690	-0.113463	-0.096583	2.785870	0.000000	0.008827	0.000000	0.000003	-0.000000	0.000000	0.000000
46.269930	18.174248	14.911718	0.447566	-0.612470	2.768144	0.000000	-0.073301	0.000000	0.000003	-0.000000	0.000000	0.000000
46.818990	17.387429	15.885740	0.976981	-1.171981	2.705616	0.000000	-0.154129	0.000000	0.000003	-0.000001	0.000000	0.000000
47.368050	16.053902	17.516132	1.437387	-1.814970	2.599395	0.000000	-0.232223	0.000000	0.000002	-0.000001	0.000000	0.000000
47.917110	14.267862	19.919023	1.796263	-2.587236	2.451365	0.000000	-0.306198	0.000000	0.000002	-0.000001	0.000000	0.000000
48.363070	12.877898	22.055467	1.331570	-2.183286	2.330106	0.000000	-0.237898	0.000000	0.000002	-0.000001	0.000000	0.000000
48.804030	11.883753	23.766090	0.931482	-1.681268	2.239662	0.000000	-0.172705	0.000000	0.000001	-0.000001	0.000000	0.000000
49.244990	11.222427	24.998423	0.573950	-1.102755	2.177506	0.000000	-0.109479	0.000000	0.000001	-0.000001	0.000000	0.000000
49.685950	10.863703	25.696394	0.242641	-0.474067	2.142929	0.000000	-0.047499	0.000000	0.000001	-0.000001	0.000000	0.000000
50.128160	10.791323	25.827965	-0.051236	0.112804	2.135547	0.000000	0.008702	0.000000	0.000001	-0.000001	0.000000	0.000000
50.425482	10.830003	25.764353	-0.078861	0.101146	2.138135	0.000000	0.008702	0.000000	0.000000	-0.000001	0.000000	0.000000
50.758816	10.892901	25.701280	-0.109831	0.088075	2.141036	0.000000	0.008702	0.000000	0.000000	-0.000001	0.000000	0.000000
51.092149	10.976445	25.646919	-0.140801	0.075005	2.143936	0.000000	0.008702	0.000000	0.000000	-0.000001	0.000000	0.000000
51.426732	11.080840	25.601637	-0.081992	-0.145807	2.146826	0.000000	-0.008714	0.000000	-0.000000	-0.000001	0.000000	0.000000
51.724055	11.137628	25.691867	-0.081692	-0.220672	2.144236	0.000000	-0.013973	0.000000	-0.000000	-0.000001	0.000000	0.000000
52.165015	11.355074	25.600669	-0.413299	0.426700	2.151663	0.000000	0.047690	0.000000	-0.000001	-0.000001	0.000000	0.000000
52.605975	11.872161	24.944955	-0.763789	1.054657	2.186375	0.000000	0.109896	0.000000	-0.000001	-0.000001	0.000000	0.000000
53.046935	12.712513	23.754558	-1.149174	1.634628	2.248767	0.000000	0.173354	0.000000	-0.000001	-0.000001	0.000000	0.000000
53.487895	13.914524	22.083641	-1.587062	2.140225	2.339549	0.000000	0.238786	0.000000	-0.000001	-0.000001	0.000000	0.000000
53.933855	15.553712	19.983243	-2.101693	2.549778	2.461261	0.000000	0.307337	0.000000	-0.000002	-0.000001	0.000000	0.000000
54.482915	17.664083	17.619819	-1.719163	1.780123	2.609828	0.000000	0.233033	0.000000	-0.000002	-0.000001	0.000000	0.000000
55.031975	19.284818	16.027399	-1.215200	1.137262	2.716400	0.000000	0.154595	0.000000	-0.000002	-0.000001	0.000000	0.000000
55.581035	20.301437	15.092560	-0.625402	0.575405	2.779089	0.000000	0.073415	0.000000	-0.000003	-0.000000	0.000000	0.000000
56.130095	20.642130	14.748716	0.008572	0.054534	2.796781	0.000000	-0.009067	0.000000	-0.000003	-0.000000	0.000000	0.000000
56.428668	20.673546	14.699236	-0.059857	0.072651	2.796255	0.000000	-0.001759	0.000000	-0.000003	-0.000000	0.000000	0.000000
56.762001	20.718845	14.658401	-0.076039	0.049854	2.795669	0.000000	-0.001759	0.000000	-0.000003	-0.000000	0.000000	0.000000
57.095334	20.774931	14.632763	-0.092220	0.027058	2.795083	0.000000	-0.001759	0.000000	-0.000003	-0.000000	0.000000	0.000000
57.429918	20.842077	14.622313	-0.108462	0.004176	2.794495	0.000000	-0.001759	0.000000	-0.000003	-0.000000	0.000000	0.000000
57.727240	20.910865	14.625876	-0.177534	0.022058	2.793972	0.000000	0.005541	0.000000	-0.000003	-0.000000	0.000000	0.000000
58.276300	20.749039	14.882553	0.470521	-0.492302	2.774375	0.000000	-0.076819	0.000000	-0.000004	-0.000000	0.000000	0.000000
58.825360	19.889690	15.719884	1.085340	-1.041727	2.709866	0.000000	-0.157816	0.000000	-0.000004	-0.000000	0.000000	0.000000
59.374420	18.393520	17.197510	1.623497	-1.665351	2.601588	0.000000	-0.236015	0.000000	-0.000004	-0.000000	0.000000	0.000000
59.923480	16.366208	19.420679	2.046978	-2.407595	2.451462	0.000000	-0.310027	0.000000	-0.000004	0.000000	0.000000	0.000000
60.369440	14.779395	21.396696	1.523820	-2.004629	2.328492	0.000000	-0.241747	0.000000	-0.000004	-0.000000	0.000000	0.000000
60.810400	13.637974	22.953234	1.074490	-1.511826	2.236339	0.000000	-0.176617	0.000000	-0.000004	-0.000000	0.000000	0.000000
61.251360	12.869764	24.043052	0.674251	-0.950235	2.172435	0.000000	-0.113499	0.000000	-0.000004	-0.000000	0.000000	0.000000
61.692320	12.439666	24.616562	0.304816	-0.345410	2.136053	0.000000	-0.051674	0.000000	-0.000004	-0.000000	0.000000	0.000000
62.134530	12.328082	24.647133	-0.020561	0.214633	2.126782	0.000000	0.004347	0.000000	-0.000004	-0.000000	0.000000	0.000000
62.431853	12.347482	24.523255	-0.044688	0.202014	2.128075	0.000000	0.004347	0.000000	-0.000004	-0.000000	0.000000	0.000000
62.765186	12.386291	24.393295	-0.071738	0.187867	2.129524	0.000000	0.004347	0.000000	-0.000004	-0.000000	0.000000	0.000000
63.098520	12.443133	24.272766	-0.098788	0.173719	2.130973	0.000000	0.004347	0.000000	-0.000004	-0.000000	0.000000	0.000000
63.433103	12.518323	24.161270	-0.125940	0.159519	2.132428	0.000000	0.004347	0.000000	-0.000005	-0.000000	0.000000	0.000000
63.730426	12.600386	24.070165	-0.119166	0.087870	2.133720	0.000000	-0.000886	0.000000	-0.000005	-0.000000	0.000000	0.000000
64.171386	12.865909	23.727575	-0.485265	0.686091	2.146869	0.000000	0.060580	0.000000	-0.000005	-0.000001	0.000000	0.000000
64.612346	13.462820	22.869206	-0.873535	1.253094	2.187248	0.000000	0.122736	0.000000	-0.000005	-0.000001	0.000000	0.000000
65.053306	14.418393	21.534112	-1.301713	1.763083	2.255318	0.000000	0.186289	0.000000	-0.000005	-0.000001	0.000000	0.000000
65.494266	15.776282	19.783039	-1.789364	2.192853	2.351852	0.000000	0.251964	0.000000	-0.000006	-0.000001	0.000000	0.000000
65.940226	17.621693	17.670875	-2.363458	2.523606	2.479524	0.000000	0.320911	0.000000	-0.000006	-0.000001	0.000000	0.000000
66.489286	19.987230	15.307972	-1.919379	1.805340	2.635360	0.000000	0.245897	0.000000	-0.000007	-0.000001	0.000000	0.000000
67.038346	21.787329	13.658993	-1.339725	1.215664	2.748748	0.000000	0.166522	0.000000	-0.000007	-0.000001	0.000000	0.000000
67.587406	22.894840	12.606485	-0.665439	0.712578	2.817679	0.000000	0.084193	0.000000	-0.000008	-0.000000	0.000000	0.000000
68.136466	23.231534	12.075481	0.055850	0.260246	2.840928	0.000000	0.000371	0.000000	-0.000008	-0.000000	0.000000	0.000000
68.435038	23.238270	11.909246	-0.017706	0.264968	2.843256	0.000000	0.007794	0.000000	-0.000008	-0.000000	0.000000	0.000000
68.768372	23.254857	11.742585	-0.032055	0.235014	2.845854	0.000000	0.007794	0.000000	-0.000008	-0.000000	0.000000	0.000000
69.101705	23.281010	11.595894	-0.046404	0.205059	2.848452	0.000000	0.007794	0.000000	-0.000008	-0.000000	0.000000	0.000000
69.436288	23.316880	11.468735	-0.060806	0.174992	2.851059	0.000000	0.007794	0.000000	-0.000008	-0.000000	0.000000	0.000000
69.733611	23.356843	11.372620	-0.134636	0.177990	2.853377	0.000000	0.015250	0.000000	-0.000008	-0.000000	0.000000	0.000000
70.282671	23.103554	11.404873	0.593219	-0.237079	2.838568	0.000000	-0.069113	0.000000	-0.000008	0.000000	0.000000	0.000000
