#ParticleID	Turn	x[m]	xp	y[m]	yp	z[m]	dE[GeV]# s	beta_x	beta_y	alpha_x	alpha_y	D_x	D_y	D_px	D_py	orbit_x	orbit_px	orbit_y	orbit_py
0.300000	11.807691	25.043544	-0.010387	-0.027003	2.618141	0.000000	0.000001	0.000000	-0.000001	0.000002	0.000000	0.000000
0.601250	11.821635	25.063440	-0.035903	-0.039041	2.618141	0.000000	0.000001	0.000000	-0.000000	0.000002	0.000000	0.000000
0.898573	11.850472	25.090188	-0.032025	-0.112449	2.618141	0.000000	-0.006419	0.000000	0.000000	0.000002	0.000000	0.000000
1.339533	12.030771	24.911028	-0.378405	0.517199	2.631603	0.000000	0.067539	0.000000	0.000001	0.000002	0.000000	0.000000
1.780493	12.522990	24.184863	-0.742072	1.123315	2.677816	0.000000	0.142266	0.000000	0.000002	0.000002	0.000000	0.000000
2.221453	13.349616	22.944734	-1.139644	1.678322	2.757306	0.000000	0.218613	0.000000	0.000002	0.000002	0.000000	0.000000
2.662413	14.548415	21.247066	-1.589282	2.156966	2.870979	0.000000	0.297450	0.000000	0.000003	0.000002	0.000000	0.000000
3.108373	16.194885	19.144205	-2.115816	2.538603	3.021990	0.000000	0.380165	0.000000	0.000004	0.000002	0.000000	0.000000
3.657433	18.306231	16.782345	-1.706803	1.788432	3.205451	0.000000	0.287127	0.000000	0.000005	0.000002	0.000000	0.000000
4.206493	19.899167	15.169897	-1.177229	1.165646	3.336353	0.000000	0.188997	0.000000	0.000006	0.000002	0.000000	0.000000
4.755553	20.861177	14.192009	-0.564502	0.625888	3.412374	0.000000	0.087514	0.000000	0.000007	0.000001	0.000000	0.000000
5.304613	21.124308	13.779029	0.088099	0.130710	3.432167	0.000000	-0.015522	0.000000	0.000007	0.000001	0.000000	0.000000
5.603185	21.108882	13.686129	0.018760	0.144438	3.430209	0.000000	-0.006555	0.000000	0.000008	0.000001	0.000000	0.000000
5.936519	21.101641	13.598125	0.002963	0.119575	3.428024	0.000000	-0.006555	0.000000	0.000008	0.000001	0.000000	0.000000
6.269852	21.104931	13.526696	-0.012834	0.094711	3.425839	0.000000	-0.006555	0.000000	0.000009	0.000001	0.000000	0.000000
6.604435	21.118824	13.471669	-0.028690	0.069754	3.423645	0.000000	-0.006555	0.000000	0.000009	0.000001	0.000000	0.000000
6.901758	21.140074	13.436784	-0.098011	0.082682	3.421696	0.000000	0.002385	0.000000	0.000009	0.000001	0.000000	0.000000
7.450818	20.887436	13.606906	0.555416	-0.394352	3.394804	0.000000	-0.100196	0.000000	0.000010	0.000001	0.000000	0.000000
7.999878	19.934652	14.313126	1.169612	-0.899475	3.311994	0.000000	-0.201000	0.000000	0.000010	0.000001	0.000000	0.000000
8.548938	18.349022	15.605748	1.701191	-1.468666	3.174736	0.000000	-0.298238	0.000000	0.000010	0.000000	0.000000	0.000000
9.097998	16.242548	17.576841	2.112607	-2.142466	2.985464	0.000000	-0.390187	0.000000	0.000011	-0.000000	0.000000	0.000000
9.543958	14.599151	19.333163	1.585572	-1.779181	2.829763	0.000000	-0.308481	0.000000	0.000011	0.000000	0.000000	0.000000
9.984918	13.403906	20.712160	1.135263	-1.336180	2.710982	0.000000	-0.230772	0.000000	0.000011	0.000000	0.000000	0.000000
10.425878	12.581512	21.672063	0.736820	-0.832384	2.625855	0.000000	-0.155691	0.000000	0.000011	0.000001	0.000000	0.000000
10.866838	12.094397	22.169197	0.372041	-0.290715	2.573414	0.000000	-0.082384	0.000000	0.000011	0.000001	0.000000	0.000000
11.309048	11.920172	22.180417	0.053383	0.209734	2.553040	0.000000	-0.016275	0.000000	0.000012	0.000001	0.000000	0.000000
11.606371	11.895865	22.059861	0.028369	0.195740	2.548201	0.000000	-0.016275	0.000000	0.000012	0.000001	0.000000	0.000000
12.086371	11.888015	21.882795	-0.012014	0.173147	2.540388	0.000000	-0.016275	0.000000	0.000013	0.000001	0.000000	0.000000
12.566371	11.918932	21.727419	-0.052397	0.150554	2.532576	0.000000	-0.016275	0.000000	0.000013	0.000001	0.000000	0.000000
13.046371	11.988617	21.593731	-0.092779	0.127962	2.524763	0.000000	-0.016275	0.000000	0.000014	0.000001	0.000000	0.000000
13.526371	12.097068	21.481733	-0.133162	0.105369	2.516951	0.000000	-0.016275	0.000000	0.000014	0.000001	0.000000	0.000000
14.007621	12.244721	21.391216	-0.173650	0.082717	2.509118	0.000000	-0.016275	0.000000	0.000015	0.000001	0.000000	0.000000
14.304943	12.355419	21.346189	-0.168369	0.016384	2.504278	0.000000	-0.022415	0.000000	0.000015	0.000001	0.000000	0.000000
14.745903	12.662401	21.098118	-0.530441	0.544046	2.510025	0.000000	0.048508	0.000000	0.000016	0.000002	0.000000	0.000000
15.186863	13.298142	20.393870	-0.916747	1.046955	2.547138	0.000000	0.119983	0.000000	0.000017	0.000002	0.000000	0.000000
15.627823	14.291685	19.265487	-1.344937	1.502228	2.616040	0.000000	0.192826	0.000000	0.000018	0.000002	0.000000	0.000000
16.068783	15.688424	17.764312	-1.834573	1.889151	2.717515	0.000000	0.267864	0.000000	0.000019	0.000003	0.000000	0.000000
16.514743	17.575831	15.937144	-2.412784	2.190862	2.854414	0.000000	0.346415	0.000000	0.000021	0.000003	0.000000	0.000000
17.063803	20.000014	13.896991	-1.976230	1.546788	3.020885	0.000000	0.259082	0.000000	0.000022	0.000003	0.000000	0.000000
17.612863	21.864855	12.499822	-1.400086	1.012888	3.138071	0.000000	0.167154	0.000000	0.000024	0.000002	0.000000	0.000000
18.161923	23.038630	11.646119	-0.725046	0.551134	3.203893	0.000000	0.072261	0.000000	0.000024	0.000001	0.000000	0.000000
18.710983	23.438428	11.275074	0.001207	0.128636	3.217185	0.000000	-0.023914	0.000000	0.000025	0.000000	0.000000	0.000000
19.009556	23.478086	11.188776	-0.072805	0.130947	3.212554	0.000000	-0.015510	0.000000	0.000025	0.000001	0.000000	0.000000
19.342889	23.531380	11.111578	-0.087078	0.100644	3.207384	0.000000	-0.015510	0.000000	0.000025	0.000001	0.000000	0.000000
19.676223	23.594190	11.054583	-0.101351	0.070342	3.202213	0.000000	-0.015510	0.000000	0.000025	0.000001	0.000000	0.000000
20.010806	23.667097	11.017553	-0.232937	0.094513	3.197044	0.000000	0.000330	0.000000	0.000026	0.000001	0.000000	0.000000
20.308129	23.809549	10.969446	-0.308378	0.095941	3.197141	0.000000	0.008682	0.000000	0.000026	0.000001	0.000000	0.000000
20.857189	23.737523	11.086076	0.438783	-0.309612	3.175688	0.000000	-0.086712	0.000000	0.000026	-0.000000	0.000000	0.000000
21.406249	22.857256	11.657476	1.154951	-0.737218	3.102204	0.000000	-0.180567	0.000000	0.000026	-0.000001	0.000000	0.000000
21.955309	21.230927	12.724346	1.789538	-1.217335	2.977993	0.000000	-0.271219	0.000000	0.000025	-0.000002	0.000000	0.000000
22.504369	18.973411	14.362676	2.297721	-1.784159	2.805258	0.000000	-0.357061	0.000000	0.000024	-0.000003	0.000000	0.000000
22.950329	17.194211	15.833670	1.705954	-1.500414	2.663318	0.000000	-0.279850	0.000000	0.000023	-0.000002	0.000000	0.000000
23.391289	15.919039	17.006531	1.196824	-1.149253	2.556238	0.000000	-0.206282	0.000000	0.000022	-0.000001	0.000000	0.000000
23.832249	15.067163	17.845367	0.742373	-0.745803	2.481051	0.000000	-0.135062	0.000000	0.000022	-0.000001	0.000000	0.000000
24.273209	14.599661	18.312012	0.321839	-0.308419	2.436899	0.000000	-0.065381	0.000000	0.000021	-0.000000	0.000000	0.000000
24.715418	14.495297	18.384990	-0.048538	0.097852	2.423278	0.000000	-0.002386	0.000000	0.000021	0.000000	0.000000	0.000000
25.012741	14.530273	18.331657	-0.069098	0.081525	2.422568	0.000000	-0.002386	0.000000	0.000021	0.000000	0.000000	0.000000
25.346075	14.584022	18.283408	-0.092148	0.063221	2.421773	0.000000	-0.002386	0.000000	0.000021	0.000000	0.000000	0.000000
25.679408	14.653137	18.247362	-0.115198	0.044917	2.420978	0.000000	-0.002386	0.000000	0.000021	0.000000	0.000000	0.000000
26.013991	14.737666	18.223822	-0.018773	-0.121297	2.420155	0.000000	-0.022020	0.000000	0.000022	0.000000	0.000000	0.000000
26.311314	14.754830	18.300873	-0.002779	-0.182722	2.413608	0.000000	-0.027937	0.000000	0.000022	-0.000000	0.000000	0.000000
26.752274	14.939055	18.263564	-0.416587	0.267009	2.416399	0.000000	0.040610	0.000000	0.000022	0.000001	0.000000	0.000000
27.193234	15.495207	17.833490	-0.849427	0.704592	2.449490	0.000000	0.109620	0.000000	0.000022	0.000001	0.000000	0.000000
27.634194	16.448695	17.030219	-1.321076	1.110116	2.513258	0.000000	0.179879	0.000000	0.000023	0.000002	0.000000	0.000000
28.075154	17.843082	15.890300	-1.853080	1.465131	2.608428	0.000000	0.252186	0.000000	0.000024	0.000002	0.000000	0.000000
28.521114	19.766295	14.448425	-2.474718	1.754395	2.737689	0.000000	0.327809	0.000000	0.000025	0.000003	0.000000	0.000000
29.070174	22.210706	12.841958	-1.950918	1.188723	2.895009	0.000000	0.244407	0.000000	0.000026	0.000002	0.000000	0.000000
29.619234	24.000383	11.806806	-1.289314	0.707721	3.005278	0.000000	0.156669	0.000000	0.000027	0.000001	0.000000	0.000000
30.168294	25.008912	11.269238	-0.536639	0.277129	3.066539	0.000000	0.066152	0.000000	0.000027	0.000000	0.000000	0.000000
30.717354	25.165055	11.190962	0.253941	-0.133724	3.077705	0.000000	-0.025538	0.000000	0.000027	-0.000001	0.000000	0.000000
31.015927	25.056338	11.261411	0.175919	-0.131462	3.072481	0.000000	-0.017498	0.000000	0.000027	-0.000000	0.000000	0.000000
31.349260	24.943630	11.359089	0.162204	-0.161573	3.066648	0.000000	-0.017498	0.000000	0.000027	-0.000000	0.000000	0.000000
31.682593	24.840065	11.476842	0.148489	-0.191684	3.060815	0.000000	-0.017498	0.000000	0.000027	-0.000000	0.000000	0.000000
32.017177	24.745307	11.615223	0.134723	-0.221908	3.054961	0.000000	-0.017498	0.000000	0.000027	-0.000000	0.000000	0.000000
32.314499	24.668833	11.755166	0.058049	-0.218059	3.049758	0.000000	-0.009532	0.000000	0.000027	-0.000000	0.000000	0.000000
32.863559	24.182409	12.233802	0.822627	-0.658824	3.019642	0.000000	-0.100009	0.000000	0.000026	-0.000001	0.000000	0.000000
33.412619	22.883479	13.219225	1.529100	-1.146515	2.940263	0.000000	-0.188713	0.000000	0.000025	-0.000002	0.000000	0.000000
33.961679	20.863793	14.781624	2.127564	-1.715870	2.813030	0.000000	-0.274069	0.000000	0.000024	-0.000003	0.000000	0.000000
34.510739	18.266013	17.032285	2.575748	-2.407442	2.640198	0.000000	-0.354565	0.000000	0.000022	-0.000004	0.000000	0.000000
34.956699	16.246091	19.045444	1.969856	-2.087923	2.498420	0.000000	-0.281633	0.000000	0.000021	-0.000003	0.000000	0.000000
35.397659	14.739825	20.710705	1.458979	-1.674150	2.389614	0.000000	-0.212338	0.000000	0.000019	-0.000003	0.000000	0.000000
35.838619	13.653128	21.975940	1.014759	-1.184204	2.310802	0.000000	-0.145461	0.000000	0.000018	-0.000002	0.000000	0.000000
36.279579	12.936351	22.783581	0.616900	-0.640377	2.261088	0.000000	-0.080240	0.000000	0.000018	-0.000002	0.000000	0.000000
36.721789	12.556051	23.097191	0.277906	-0.124100	2.239878	0.000000	-0.021425	0.000000	0.000017	-0.000001	0.000000	0.000000
37.019112	12.398380	23.174873	0.252397	-0.137171	2.233508	0.000000	-0.021425	0.000000	0.000017	-0.000001	0.000000	0.000000
37.352445	12.239647	23.271205	0.223799	-0.151825	2.226366	0.000000	-0.021425	0.000000	0.000016	-0.000001	0.000000	0.000000
37.685779	12.099980	23.377306	0.195202	-0.166479	2.219225	0.000000	-0.021425	0.000000	0.000016	-0.000001	0.000000	0.000000
38.020362	11.978962	23.493630	0.166496	-0.181188	2.212057	0.000000	-0.021425	0.000000	0.000015	-0.000001	0.000000	0.000000
38.317684	11.887540	23.605259	0.170135	-0.252138	2.205687	0.000000	-0.026834	0.000000	0.000015	-0.000001	0.000000	0.000000
38.758644	11.889026	23.566158	-0.173517	0.340474	2.207782	0.000000	0.036345	0.000000	0.000015	-0.000001	0.000000	0.000000
39.199604	12.195921	23.009280	-0.525096	0.917595	2.237801	0.000000	0.099937	0.000000	0.000014	-0.000000	0.000000	0.000000
39.640564	12.822249	21.959964	-0.900666	1.452966	2.296086	0.000000	0.164668	0.000000	0.000014	-0.000000	0.000000	0.000000
40.081524	13.796624	20.465953	-1.317384	1.922229	2.383300	0.000000	0.231274	0.000000	0.000014	0.000000	0.000000	0.000000
40.527484	15.181141	18.572646	-1.798118	2.305317	2.501909	0.000000	0.300919	0.000000	0.000014	0.000001	0.000000	0.000000
41.076544	16.947859	16.444994	-1.400547	1.592637	2.646602	0.000000	0.225361	0.000000	0.000015	0.000000	0.000000	0.000000
41.625604	18.220755	15.033438	-0.904048	0.993397	2.748648	0.000000	0.145805	0.000000	0.000014	-0.000000	0.000000	0.000000
42.174664	18.909919	14.237435	-0.343692	0.464915	2.806239	0.000000	0.063663	0.000000	0.000014	-0.000001	0.000000	0.000000
42.723724	18.966671	14.000289	0.240941	-0.030453	2.818351	0.000000	-0.019609	0.000000	0.000014	-0.000001	0.000000	0.000000
43.022297	18.857255	14.003000	0.175072	-0.015203	2.814695	0.000000	-0.012246	0.000000	0.000013	-0.000001	0.000000	0.000000
43.502297	18.701778	14.034053	0.148837	-0.049490	2.808818	0.000000	-0.012246	0.000000	0.000013	-0.000001	0.000000	0.000000
43.982297	18.571487	14.098020	0.122603	-0.083776	2.802941	0.000000	-0.012246	0.000000	0.000012	-0.000001	0.000000	0.000000
44.462297	18.466381	14.194903	0.096368	-0.118062	2.797063	0.000000	-0.012246	0.000000	0.000012	-0.000001	0.000000	0.000000
44.942297	18.386460	14.324700	0.070134	-0.152349	2.791186	0.000000	-0.012246	0.000000	0.000011	-0.000001	0.000000	0.000000
45.423547	18.331841	14.487699	-0.046995	-0.114943	2.785311	0.000000	0.001555	0.000000	0.000010	-0.000001	0.000000	0.000000
45.720870	18.364620	14.562232	-0.111229	-0.097692	2.785773	0.000000	0.008833	0.000000	0.000010	-0.000001	0.000000	0.000000
46.269930	18.177544	14.951110	0.449932	-0.614751	2.768052	0.000000	-0.073292	0.000000	0.000009	-0.000001	0.000000	0.000000
46.818990	17.388130	15.928351	0.979311	-1.175598	2.705530	0.000000	-0.154117	0.000000	0.000008	-0.000002	0.000000	0.000000
47.368050	16.052139	17.563561	1.439518	-1.820180	2.599317	0.000000	-0.232208	0.000000	0.000007	-0.000002	0.000000	0.000000
47.917110	14.263938	19.973212	1.798043	-2.594410	2.451296	0.000000	-0.306181	0.000000	0.000006	-0.000002	0.000000	0.000000
48.363070	12.872433	22.115541	1.333257	-2.189252	2.330044	0.000000	-0.237883	0.000000	0.000005	-0.000002	0.000000	0.000000
48.804030	11.876814	23.830794	0.933153	-1.685761	2.239608	0.000000	-0.172691	0.000000	0.000004	-0.000002	0.000000	0.000000
49.244990	11.213991	25.066360	0.575683	-1.105569	2.177457	0.000000	-0.109466	0.000000	0.000004	-0.000002	0.000000	0.000000
49.685950	10.853684	25.766023	0.244514	-0.475074	2.142886	0.000000	-0.047488	0.000000	0.000003	-0.000002	0.000000	0.000000
50.128160	10.779553	25.897665	-0.049167	0.113479	2.135509	0.000000	0.008712	0.000000	0.000002	-0.000002	0.000000	0.000000
50.425482	10.817011	25.833642	-0.076816	0.101851	2.138100	0.000000	0.008712	0.000000	0.000002	-0.000002	0.000000	0.000000
50.758816	10.878554	25.770088	-0.107813	0.088814	2.141005	0.000000	0.008712	0.000000	0.000001	-0.000002	0.000000	0.000000
51.092149	10.960762	25.715224	-0.138811	0.075777	2.143909	0.000000	0.008712	0.000000	0.000000	-0.000002	0.000000	0.000000
51.426732	11.063835	25.669416	-0.080167	-0.145552	2.146803	0.000000	-0.008704	0.000000	-0.000000	-0.000002	0.000000	0.000000
51.724055	11.119547	25.759484	-0.079945	-0.220551	2.144216	0.000000	-0.013962	0.000000	-0.000001	-0.000002	0.000000	0.000000
52.165015	11.335258	25.667391	-0.411096	0.428603	2.151648	0.000000	0.047700	0.000000	-0.000001	-0.000002	0.000000	0.000000
52.605975	11.850165	25.009241	-0.761030	1.058256	2.186365	0.000000	0.109906	0.000000	-0.000002	-0.000002	0.000000	0.000000
53.046935	12.687793	23.814979	-1.145732	1.639760	2.248761	0.000000	0.173364	0.000000	-0.000003	-0.000002	0.000000	0.000000
53.487895	13.886410	22.138944	-1.582780	2.146655	2.339548	0.000000	0.238796	0.000000	-0.000004	-0.000002	0.000000	0.000000
53.933855	15.521327	20.032336	-2.096366	2.557218	2.461265	0.000000	0.307346	0.000000	-0.000005	-0.000002	0.000000	0.000000
54.482915	17.626275	17.661816	-1.714672	1.785683	2.609837	0.000000	0.233042	0.000000	-0.000006	-0.000002	0.000000	0.000000
55.031975	19.242686	16.064136	-1.211863	1.141339	2.716416	0.000000	0.154604	0.000000	-0.000007	-0.000002	0.000000	0.000000
55.581035	20.256385	15.125497	-0.623453	0.578290	2.779109	0.000000	0.073423	0.000000	-0.000008	-0.000001	0.000000	0.000000
56.130095	20.595769	14.779042	0.008993	0.056431	2.796806	0.000000	-0.009059	0.000000	-0.000008	-0.000001	0.000000	0.000000
56.428668	20.626872	14.728371	-0.059349	0.074664	2.796283	0.000000	-0.001751	0.000000	-0.000009	-0.000001	0.000000	0.000000
56.762001	20.671844	14.686181	-0.075566	0.051906	2.795700	0.000000	-0.001751	0.000000	-0.000009	-0.000001	0.000000	0.000000
57.095334	20.727627	14.659163	-0.091783	0.029147	2.795116	0.000000	-0.001751	0.000000	-0.000009	-0.000001	0.000000	0.000000
57.429918	20.794491	14.647302	-0.108061	0.006304	2.794531	0.000000	-0.001751	0.000000	-0.000010	-0.000001	0.000000	0.000000
57.727240	20.863050	14.649589	-0.177042	0.024284	2.794010	0.000000	0.005550	0.000000	-0.000010	-0.000001	0.000000	0.000000
58.276300	20.701567	14.904183	0.469409	-0.490712	2.774419	0.000000	-0.076812	0.000000	-0.000011	-0.000001	0.000000	0.000000
58.825360	19.844289	15.740064	1.082704	-1.040660	2.709913	0.000000	-0.157811	0.000000	-0.000011	-0.000001	0.000000	0.000000
59.374420	18.351769	17.216771	1.619522	-1.664733	2.601638	0.000000	-0.236011	0.000000	-0.000011	-0.000000	0.000000	0.000000
59.923480	16.329432	19.439484	2.041946	-2.407380	2.451514	0.000000	-0.310024	0.000000	-0.000011	0.000000	0.000000	0.000000
60.369440	14.746606	21.415015	1.519879	-2.003759	2.328545	0.000000	-0.241743	0.000000	-0.000011	-0.000000	0.000000	0.000000
60.810400	13.608252	22.970514	1.071451	-1.510346	2.236394	0.000000	-0.176612	0.000000	-0.000011	-0.000000	0.000000	0.000000
61.251360	12.842377	24.058781	0.671975	-0.948213	2.172493	0.000000	-0.113493	0.000000	-0.000012	-0.000001	0.000000	0.000000
61.692320	12.413989	24.630301	0.303199	-0.342937	2.136114	0.000000	-0.051666	0.000000	-0.000012	-0.000001	0.000000	0.000000
62.134530	12.303571	24.658527	-0.021650	0.217411	2.126848	0.000000	0.004356	0.000000	-0.000012	-0.000001	0.000000	0.000000
62.431853	12.323634	24.532999	-0.045827	0.204784	2.128143	0.000000	0.004356	0.000000	-0.000013	-0.000001	0.000000	0.000000
62.765186	12.363220	24.401195	-0.072932	0.190627	2.129596	0.000000	0.004356	0.000000	-0.000013	-0.000001	0.000000	0.000000
63.098520	12.420877	24.278829	-0.100037	0.176470	2.131048	0.000000	0.004356	0.000000	-0.000014	-0.000001	0.000000	0.000000
63.433103	12.496922	24.165496	-0.127244	0.162260	2.132506	0.000000	0.004356	0.000000	-0.000014	-0.000001	0.000000	0.000000
63.730426	12.579775	24.072763	-0.120567	0.090590	2.133802	0.000000	-0.000877	0.000000	-0.000014	-0.000001	0.000000	0.000000
64.171386	12.846338	23.727767	-0.486233	0.688809	2.146955	0.000000	0.060590	0.000000	-0.000015	-0.000002	0.000000	0.000000
64.612346	13.443929	22.867047	-0.874113	1.255687	2.187340	0.000000	0.122748	0.000000	-0.000016	-0.000002	0.000000	0.000000
65.053306	14.399850	21.529766	-1.301929	1.765432	2.255416	0.000000	0.186304	0.000000	-0.000017	-0.000002	0.000000	0.000000
65.494266	15.757773	19.776770	-1.789226	2.194851	2.351959	0.000000	0.251982	0.000000	-0.000018	-0.000003	0.000000	0.000000
65.940226	17.602900	17.663017	-2.362959	2.525158	2.479640	0.000000	0.320932	0.000000	-0.000019	-0.000003	0.000000	0.000000
66.489286	19.968306	15.298440	-1.919643	1.806854	2.635487	0.000000	0.245914	0.000000	-0.000021	-0.000003	0.000000	0.000000
67.038346	21.769106	13.647770	-1.340732	1.217249	2.748884	0.000000	0.166535	0.000000	-0.000022	-0.000002	0.000000	0.000000
67.587406	22.878101	12.593433	-0.667120	0.714345	2.817821	0.000000	0.084201	0.000000	-0.000023	-0.000001	0.000000	0.000000
68.136466	23.216958	12.060331	0.053615	0.262322	2.841074	0.000000	0.000374	0.000000	-0.000024	-0.000001	0.000000	0.000000
68.435038	23.225013	11.892896	-0.019920	0.266946	2.843403	0.000000	0.007799	0.000000	-0.000024	-0.000001	0.000000	0.000000
68.768372	23.243078	11.724940	-0.034278	0.236921	2.846003	0.000000	0.007799	0.000000	-0.000024	-0.000001	0.000000	0.000000
69.101705	23.270716	11.577002	-0.048636	0.206895	2.848602	0.000000	0.007799	0.000000	-0.000024	-0.000001	0.000000	0.000000
69.436288	23.308083	11.448638	-0.063047	0.176758	2.851212	0.000000	0.007799	0.000000	-0.000025	-0.000001	0.000000	0.000000
69.733611	23.349382	11.351492	-0.136875	0.179642	2.853531	0.000000	0.015256	0.000000	-0.000025	-0.000001	0.000000	0.000000
70.282671	23.098666	11.381601	0.590799	-0.234803	2.838724	0.000000	-0.069111	0.000000	-0.000025	0.000000	0.000000	0.000000
