#ParticleID	Turn	x[m]	xp	y[m]	yp	z[m]	dE[GeV]# s	beta_x	beta_y	alpha_x	alpha_y	D_x	D_y	D_px	D_py	orbit_x	orbit_px	orbit_y	orbit_py
0.300000	11.801685	25.064825	-0.009950	-0.026685	2.618389	0.000000	-0.000093	0.000000	-0.000002	0.000002	0.000000	0.000000
0.601250	11.815371	25.084525	-0.035479	-0.038712	2.618361	0.000000	-0.000093	0.000000	-0.000001	0.000002	0.000000	0.000000
0.898573	11.843959	25.111075	-0.031629	-0.112162	2.618333	0.000000	-0.006514	0.000000	-0.000001	0.000002	0.000000	0.000000
1.339533	12.023841	24.931419	-0.377850	0.518032	2.631754	0.000000	0.067449	0.000000	0.000000	0.000002	0.000000	0.000000
1.780493	12.515492	24.204292	-0.741334	1.124657	2.677928	0.000000	0.142179	0.000000	0.000001	0.000002	0.000000	0.000000
2.221453	13.341373	22.962777	-1.138688	1.680110	2.757380	0.000000	0.218529	0.000000	0.000002	0.000002	0.000000	0.000000
2.662413	14.539218	21.263364	-1.588064	2.159120	2.871016	0.000000	0.297368	0.000000	0.000003	0.000002	0.000000	0.000000
3.108373	16.184464	19.158454	-2.114279	2.541025	3.021991	0.000000	0.380083	0.000000	0.000004	0.000002	0.000000	0.000000
3.657433	18.294271	16.794263	-1.705553	1.790279	3.205406	0.000000	0.287046	0.000000	0.000005	0.000002	0.000000	0.000000
4.206493	19.886035	15.180039	-1.176355	1.167051	3.336264	0.000000	0.188917	0.000000	0.000006	0.000002	0.000000	0.000000
4.755553	20.847322	14.200806	-0.564066	0.626949	3.412243	0.000000	0.087438	0.000000	0.000007	0.000002	0.000000	0.000000
5.304613	21.110231	13.786813	0.088067	0.131504	3.431995	0.000000	-0.015593	0.000000	0.000008	0.000001	0.000000	0.000000
5.603185	21.094804	13.693425	0.018755	0.145259	3.430016	0.000000	-0.006626	0.000000	0.000008	0.000001	0.000000	0.000000
5.936519	21.087570	13.604871	0.002947	0.120403	3.427807	0.000000	-0.006626	0.000000	0.000009	0.000001	0.000000	0.000000
6.269852	21.090874	13.532888	-0.012860	0.095547	3.425598	0.000000	-0.006626	0.000000	0.000009	0.000001	0.000000	0.000000
6.604435	21.104788	13.477299	-0.028726	0.070597	3.423380	0.000000	-0.006626	0.000000	0.000010	0.000001	0.000000	0.000000
6.901758	21.126062	13.441910	-0.098020	0.083545	3.421410	0.000000	0.002313	0.000000	0.000010	0.000001	0.000000	0.000000
7.450818	20.873691	13.611158	0.554942	-0.393616	3.394480	0.000000	-0.100258	0.000000	0.000011	0.000001	0.000000	0.000000
7.999878	19.921669	14.316615	1.168706	-0.898813	3.311639	0.000000	-0.201051	0.000000	0.000011	0.000001	0.000000	0.000000
8.548938	18.337242	15.608528	1.699919	-1.468030	3.174356	0.000000	-0.298278	0.000000	0.000012	0.000000	0.000000	0.000000
9.097998	16.232328	17.578918	2.111057	-2.141812	2.985066	0.000000	-0.390214	0.000000	0.000012	-0.000000	0.000000	0.000000
9.543958	14.590167	19.334598	1.584339	-1.778401	2.829351	0.000000	-0.308518	0.000000	0.000012	0.000000	0.000000	0.000000
9.984918	13.395892	20.712865	1.134288	-1.335311	2.710550	0.000000	-0.230820	0.000000	0.000012	0.000001	0.000000	0.000000
10.425878	12.574260	21.671977	0.736060	-0.831466	2.625400	0.000000	-0.155751	0.000000	0.000012	0.000001	0.000000	0.000000
10.866838	12.087734	22.168295	0.371460	-0.289789	2.572930	0.000000	-0.082456	0.000000	0.000013	0.000001	0.000000	0.000000
11.309048	11.913953	22.178709	0.052939	0.210630	2.552521	0.000000	-0.016358	0.000000	0.000013	0.000002	0.000000	0.000000
11.606371	11.889914	22.057621	0.027913	0.196630	2.547657	0.000000	-0.016358	0.000000	0.000014	0.000002	0.000000	0.000000
12.086371	11.882510	21.879706	-0.012489	0.174027	2.539805	0.000000	-0.016358	0.000000	0.000015	0.000002	0.000000	0.000000
12.566371	11.913893	21.723490	-0.052891	0.151424	2.531952	0.000000	-0.016358	0.000000	0.000015	0.000002	0.000000	0.000000
13.046371	11.984060	21.588971	-0.093293	0.128822	2.524099	0.000000	-0.016358	0.000000	0.000016	0.000002	0.000000	0.000000
13.526371	12.093014	21.476151	-0.133694	0.106219	2.516246	0.000000	-0.016358	0.000000	0.000017	0.000002	0.000000	0.000000
14.007621	12.241189	21.384821	-0.174201	0.083558	2.508373	0.000000	-0.016358	0.000000	0.000017	0.000002	0.000000	0.000000
14.304943	12.352218	21.339296	-0.168941	0.017236	2.503509	0.000000	-0.022497	0.000000	0.000018	0.000001	0.000000	0.000000
14.745903	12.659680	21.090560	-0.530959	0.544695	2.509216	0.000000	0.048406	0.000000	0.000019	0.000002	0.000000	0.000000
15.186863	13.295863	20.385841	-0.917236	1.047371	2.546279	0.000000	0.119860	0.000000	0.000020	0.000002	0.000000	0.000000
15.627823	14.289832	19.257202	-1.345418	1.502392	2.615121	0.000000	0.192680	0.000000	0.000021	0.000003	0.000000	0.000000
16.068783	15.687000	17.755997	-1.835068	1.889055	2.716526	0.000000	0.267693	0.000000	0.000022	0.000004	0.000000	0.000000
16.514743	17.574863	15.929030	-2.413317	2.190509	2.853343	0.000000	0.346218	0.000000	0.000024	0.000004	0.000000	0.000000
17.063803	19.999693	13.889152	-1.976867	1.546638	3.019715	0.000000	0.258921	0.000000	0.000026	0.000003	0.000000	0.000000
17.612863	21.865269	12.492041	-1.400780	1.012931	3.136823	0.000000	0.167032	0.000000	0.000028	0.000002	0.000000	0.000000
18.161923	23.039816	11.638185	-0.725750	0.551372	3.202590	0.000000	0.072180	0.000000	0.000029	0.000002	0.000000	0.000000
18.710983	23.440369	11.266765	0.000544	0.129086	3.215849	0.000000	-0.023952	0.000000	0.000029	0.000001	0.000000	0.000000
19.009556	23.480424	11.180218	-0.073470	0.131351	3.211205	0.000000	-0.015552	0.000000	0.000029	0.000001	0.000000	0.000000
19.342889	23.534162	11.102761	-0.087743	0.101022	3.206021	0.000000	-0.015552	0.000000	0.000030	0.000001	0.000000	0.000000
19.676223	23.597415	11.045523	-0.102016	0.070693	3.200837	0.000000	-0.015552	0.000000	0.000030	0.000001	0.000000	0.000000
20.010806	23.670767	11.008267	-0.233621	0.094792	3.195653	0.000000	0.000281	0.000000	0.000030	0.000001	0.000000	0.000000
20.308129	23.813627	10.960002	-0.309072	0.096169	3.195736	0.000000	0.008629	0.000000	0.000030	0.000001	0.000000	0.000000
20.857189	23.742285	11.076235	0.438239	-0.309114	3.174267	0.000000	-0.086718	0.000000	0.000031	-0.000000	0.000000	0.000000
21.406249	22.862515	11.646924	1.154594	-0.736414	3.100792	0.000000	-0.180528	0.000000	0.000030	-0.000001	0.000000	0.000000
21.955309	21.236462	12.712718	1.789395	-1.216168	2.976615	0.000000	-0.271135	0.000000	0.000029	-0.000002	0.000000	0.000000
22.504369	18.978981	14.349531	2.297801	-1.782547	2.803938	0.000000	-0.356933	0.000000	0.000028	-0.000003	0.000000	0.000000
22.950329	17.199758	15.819224	1.705925	-1.499119	2.662048	0.000000	-0.279756	0.000000	0.000027	-0.000002	0.000000	0.000000
23.391289	15.924660	16.991105	1.196685	-1.148334	2.555003	0.000000	-0.206219	0.000000	0.000026	-0.000002	0.000000	0.000000
23.832249	15.072956	17.829312	0.742118	-0.745301	2.479836	0.000000	-0.135031	0.000000	0.000025	-0.000001	0.000000	0.000000
24.273209	14.605735	18.295707	0.321456	-0.308357	2.435691	0.000000	-0.065381	0.000000	0.000025	-0.000000	0.000000	0.000000
24.715418	14.501772	18.368827	-0.049052	0.097513	2.422063	0.000000	-0.002414	0.000000	0.000025	0.000000	0.000000	0.000000
25.012741	14.537051	18.315700	-0.069603	0.081173	2.421345	0.000000	-0.002414	0.000000	0.000025	0.000000	0.000000	0.000000
25.346075	14.591134	18.267691	-0.092644	0.062854	2.420540	0.000000	-0.002414	0.000000	0.000025	0.000000	0.000000	0.000000
25.679408	14.660577	18.231895	-0.115685	0.044534	2.419735	0.000000	-0.002414	0.000000	0.000026	0.000000	0.000000	0.000000
26.013991	14.745429	18.208615	-0.019188	-0.121571	2.418902	0.000000	-0.022038	0.000000	0.000026	0.000000	0.000000	0.000000
26.311314	14.762836	18.285834	-0.003165	-0.182972	2.412350	0.000000	-0.027952	0.000000	0.000026	0.000000	0.000000	0.000000
26.752274	14.947489	18.248924	-0.417174	0.266356	2.415128	0.000000	0.040563	0.000000	0.000026	0.000001	0.000000	0.000000
27.193234	15.504256	17.819594	-0.850242	0.703565	2.448190	0.000000	0.109540	0.000000	0.000026	0.000001	0.000000	0.000000
27.634194	16.458577	17.017377	-1.322155	1.108762	2.511914	0.000000	0.179764	0.000000	0.000027	0.000002	0.000000	0.000000
28.075154	17.854051	15.878774	-1.854474	1.463512	2.607026	0.000000	0.252036	0.000000	0.000028	0.000003	0.000000	0.000000
28.521114	19.778672	14.438435	-2.476493	1.752584	2.736211	0.000000	0.327622	0.000000	0.000030	0.000004	0.000000	0.000000
29.070174	22.224856	12.833728	-1.952353	1.187309	2.893442	0.000000	0.244268	0.000000	0.000031	0.000003	0.000000	0.000000
29.619234	24.015875	11.799958	-1.290308	0.706604	3.003649	0.000000	0.156582	0.000000	0.000032	0.000002	0.000000	0.000000
30.168294	25.025220	11.263490	-0.537122	0.276229	3.064877	0.000000	0.066119	0.000000	0.000033	0.000000	0.000000	0.000000
30.717354	25.181594	11.186114	0.254004	-0.134472	3.076039	0.000000	-0.025517	0.000000	0.000033	-0.000001	0.000000	0.000000
31.015927	25.072861	11.257022	0.175950	-0.132239	3.070820	0.000000	-0.017482	0.000000	0.000033	-0.000001	0.000000	0.000000
31.349260	24.960130	11.355225	0.162244	-0.162368	3.064992	0.000000	-0.017482	0.000000	0.000033	-0.000001	0.000000	0.000000
31.682593	24.856536	11.473513	0.148538	-0.192497	3.059165	0.000000	-0.017482	0.000000	0.000032	-0.000001	0.000000	0.000000
32.017177	24.761742	11.612444	0.134780	-0.222739	3.053316	0.000000	-0.017482	0.000000	0.000032	-0.000001	0.000000	0.000000
32.314499	24.685231	11.752885	0.058074	-0.218913	3.048118	0.000000	-0.009520	0.000000	0.000032	-0.000000	0.000000	0.000000
32.863559	24.198481	12.232445	0.823191	-0.659661	3.018023	0.000000	-0.099945	0.000000	0.000032	-0.000001	0.000000	0.000000
33.412619	22.898653	13.218806	1.530162	-1.147395	2.938693	0.000000	-0.188597	0.000000	0.000031	-0.000002	0.000000	0.000000
33.961679	20.877560	14.782223	2.129050	-1.716855	2.811537	0.000000	-0.273904	0.000000	0.000029	-0.000003	0.000000	0.000000
34.510739	18.277963	17.034057	2.577552	-2.408604	2.638810	0.000000	-0.354353	0.000000	0.000027	-0.000004	0.000000	0.000000
34.956699	16.256606	19.048280	1.971283	-2.089139	2.497119	0.000000	-0.281456	0.000000	0.000025	-0.000004	0.000000	0.000000
35.397659	14.749222	20.714617	1.460098	-1.675364	2.388384	0.000000	-0.212193	0.000000	0.000024	-0.000003	0.000000	0.000000
35.838619	13.661654	21.980901	1.015620	-1.185360	2.309629	0.000000	-0.145347	0.000000	0.000022	-0.000002	0.000000	0.000000
36.279579	12.944216	22.789517	0.617544	-0.641424	2.259959	0.000000	-0.080156	0.000000	0.000021	-0.000002	0.000000	0.000000
36.721789	12.563432	23.103986	0.278378	-0.125003	2.238779	0.000000	-0.021367	0.000000	0.000021	-0.000001	0.000000	0.000000
37.019112	12.405477	23.182204	0.252879	-0.138073	2.232426	0.000000	-0.021367	0.000000	0.000020	-0.000001	0.000000	0.000000
37.352445	12.246420	23.279137	0.224291	-0.152726	2.225304	0.000000	-0.021367	0.000000	0.000020	-0.000001	0.000000	0.000000
37.685779	12.106423	23.385839	0.195702	-0.167379	2.218182	0.000000	-0.021367	0.000000	0.000019	-0.000001	0.000000	0.000000
38.020362	11.985066	23.502765	0.167007	-0.182087	2.211034	0.000000	-0.021367	0.000000	0.000019	-0.000001	0.000000	0.000000
38.317684	11.893338	23.614928	0.170668	-0.253058	2.204681	0.000000	-0.026773	0.000000	0.000018	-0.000001	0.000000	0.000000
38.758644	11.894410	23.576522	-0.173110	0.339823	2.206798	0.000000	0.036380	0.000000	0.000018	-0.000001	0.000000	0.000000
39.199604	12.200997	23.020089	-0.524798	0.917243	2.236827	0.000000	0.099947	0.000000	0.000018	-0.000001	0.000000	0.000000
39.640564	12.827104	21.970946	-0.900462	1.452928	2.295110	0.000000	0.164653	0.000000	0.000017	-0.000000	0.000000	0.000000
40.081524	13.801338	20.476828	-1.317266	1.922507	2.382312	0.000000	0.231233	0.000000	0.000018	0.000000	0.000000	0.000000
40.527484	15.185785	18.583134	-1.798080	2.305901	2.500897	0.000000	0.300853	0.000000	0.000018	0.000001	0.000000	0.000000
41.076544	16.952351	16.455006	-1.400310	1.592926	2.645562	0.000000	0.225328	0.000000	0.000018	0.000000	0.000000	0.000000
41.625604	18.224885	15.043285	-0.903630	0.993411	2.747600	0.000000	0.145805	0.000000	0.000018	-0.000000	0.000000	0.000000
42.174664	18.913503	14.247417	-0.343121	0.464655	2.805200	0.000000	0.063697	0.000000	0.000018	-0.000001	0.000000	0.000000
42.723724	18.969562	14.010714	0.241624	-0.031005	2.817340	0.000000	-0.019541	0.000000	0.000017	-0.000001	0.000000	0.000000
43.022297	18.859743	14.013734	0.175747	-0.015713	2.813704	0.000000	-0.012181	0.000000	0.000017	-0.000001	0.000000	0.000000
43.502297	18.703620	14.045264	0.149510	-0.049974	2.807858	0.000000	-0.012181	0.000000	0.000016	-0.000001	0.000000	0.000000
43.982297	18.572684	14.109684	0.123273	-0.084234	2.802012	0.000000	-0.012181	0.000000	0.000015	-0.000001	0.000000	0.000000
44.462297	18.466937	14.206994	0.097035	-0.118495	2.796165	0.000000	-0.012181	0.000000	0.000015	-0.000001	0.000000	0.000000
44.942297	18.386376	14.337194	0.070798	-0.152756	2.790319	0.000000	-0.012181	0.000000	0.000014	-0.000001	0.000000	0.000000
45.423547	18.331120	14.500572	-0.046330	-0.115261	2.784475	0.000000	0.001615	0.000000	0.000013	-0.000001	0.000000	0.000000
45.720870	18.363502	14.575289	-0.110559	-0.097959	2.784956	0.000000	0.008891	0.000000	0.000013	-0.000001	0.000000	0.000000
46.269930	18.175718	14.964679	0.450545	-0.615421	2.767274	0.000000	-0.073208	0.000000	0.000012	-0.000002	0.000000	0.000000
46.818990	17.385682	15.942898	0.979825	-1.176719	2.704805	0.000000	-0.154009	0.000000	0.000011	-0.000002	0.000000	0.000000
47.368050	16.049199	17.579621	1.439894	-1.821832	2.598657	0.000000	-0.232078	0.000000	0.000010	-0.000002	0.000000	0.000000
47.917110	14.260671	19.991429	1.798257	-2.596710	2.450714	0.000000	-0.306030	0.000000	0.000008	-0.000003	0.000000	0.000000
48.363070	12.868961	22.135631	1.333506	-2.191136	2.329527	0.000000	-0.237746	0.000000	0.000007	-0.000003	0.000000	0.000000
48.804030	11.873102	23.852331	0.933450	-1.687145	2.239148	0.000000	-0.172567	0.000000	0.000006	-0.000002	0.000000	0.000000
49.244990	11.209992	25.088873	0.576040	-1.106390	2.177050	0.000000	-0.109354	0.000000	0.000005	-0.000002	0.000000	0.000000
49.685950	10.849337	25.788997	0.244948	-0.475295	2.142526	0.000000	-0.047385	0.000000	0.000004	-0.000002	0.000000	0.000000
50.128160	10.774781	25.920563	-0.048648	0.113814	2.135194	0.000000	0.008807	0.000000	0.000003	-0.000002	0.000000	0.000000
50.425482	10.811933	25.856338	-0.076307	0.102195	2.137813	0.000000	0.008807	0.000000	0.000003	-0.000002	0.000000	0.000000
50.758816	10.873141	25.792551	-0.107317	0.089168	2.140749	0.000000	0.008807	0.000000	0.000002	-0.000002	0.000000	0.000000
51.092149	10.955023	25.737447	-0.138327	0.076142	2.143686	0.000000	0.008807	0.000000	0.000001	-0.000002	0.000000	0.000000
51.426732	11.057776	25.691392	-0.079745	-0.145354	2.146611	0.000000	-0.008607	0.000000	0.000001	-0.000002	0.000000	0.000000
51.724055	11.113241	25.781339	-0.079551	-0.220396	2.144053	0.000000	-0.013865	0.000000	0.000000	-0.000002	0.000000	0.000000
52.165015	11.328539	25.688855	-0.410550	0.429333	2.151527	0.000000	0.047794	0.000000	-0.000001	-0.000002	0.000000	0.000000
52.605975	11.842888	25.029819	-0.760305	1.059527	2.186285	0.000000	0.109997	0.000000	-0.000002	-0.000002	0.000000	0.000000
53.046935	12.679787	23.834219	-1.144797	1.641513	2.248721	0.000000	0.173453	0.000000	-0.000003	-0.000002	0.000000	0.000000
53.487895	13.877471	22.156453	-1.581592	2.148812	2.339548	0.000000	0.238885	0.000000	-0.000004	-0.000002	0.000000	0.000000
53.933855	15.511195	20.047775	-2.094867	2.559681	2.461304	0.000000	0.307436	0.000000	-0.000005	-0.000002	0.000000	0.000000
54.482915	17.614643	17.674895	-1.713454	1.787543	2.609925	0.000000	0.233129	0.000000	-0.000006	-0.000002	0.000000	0.000000
55.031975	19.229910	16.075443	-1.211011	1.142727	2.716551	0.000000	0.154687	0.000000	-0.000007	-0.000002	0.000000	0.000000
55.581035	20.242904	15.135493	-0.623028	0.579304	2.779289	0.000000	0.073502	0.000000	-0.000008	-0.000002	0.000000	0.000000
56.130095	20.582071	14.788094	0.008962	0.057145	2.797027	0.000000	-0.008987	0.000000	-0.000009	-0.000001	0.000000	0.000000
56.428668	20.613174	14.736979	-0.059355	0.075411	2.796526	0.000000	-0.001679	0.000000	-0.000009	-0.000001	0.000000	0.000000
56.762001	20.658153	14.694288	-0.075583	0.052664	2.795967	0.000000	-0.001679	0.000000	-0.000010	-0.000001	0.000000	0.000000
57.095334	20.713951	14.666761	-0.091811	0.029916	2.795408	0.000000	-0.001679	0.000000	-0.000010	-0.000001	0.000000	0.000000
57.429918	20.780838	14.654382	-0.108099	0.007084	2.794847	0.000000	-0.001679	0.000000	-0.000011	-0.000001	0.000000	0.000000
57.727240	20.849422	14.656202	-0.177055	0.025091	2.794348	0.000000	0.005623	0.000000	-0.000011	-0.000001	0.000000	0.000000
58.276300	20.688203	14.910009	0.468944	-0.490077	2.774794	0.000000	-0.076750	0.000000	-0.000012	-0.000001	0.000000	0.000000
58.825360	19.831671	15.745265	1.081819	-1.040151	2.710319	0.000000	-0.157761	0.000000	-0.000012	-0.000001	0.000000	0.000000
59.374420	18.340327	17.221465	1.618279	-1.664313	2.602068	0.000000	-0.235975	0.000000	-0.000013	-0.000000	0.000000	0.000000
59.923480	16.319512	19.443753	2.040433	-2.407020	2.451960	0.000000	-0.310003	0.000000	-0.000013	0.000000	0.000000	0.000000
60.369440	14.737894	21.418883	1.518674	-2.003224	2.329003	0.000000	-0.241710	0.000000	-0.000013	-0.000000	0.000000	0.000000
60.810400	13.600488	22.973842	1.070497	-1.509661	2.236870	0.000000	-0.176567	0.000000	-0.000013	-0.000001	0.000000	0.000000
61.251360	12.835360	24.061451	0.671227	-0.947410	2.172991	0.000000	-0.113435	0.000000	-0.000013	-0.000001	0.000000	0.000000
61.692320	12.407553	24.632224	0.302624	-0.342052	2.136641	0.000000	-0.051595	0.000000	-0.000014	-0.000001	0.000000	0.000000
62.134530	12.297577	24.659646	-0.022093	0.218334	2.127409	0.000000	0.004440	0.000000	-0.000014	-0.000002	0.000000	0.000000
62.431853	12.317907	24.533570	-0.046282	0.205702	2.128730	0.000000	0.004440	0.000000	-0.000015	-0.000002	0.000000	0.000000
62.765186	12.357801	24.401156	-0.073401	0.191540	2.130210	0.000000	0.004440	0.000000	-0.000015	-0.000002	0.000000	0.000000
63.098520	12.415775	24.278183	-0.100520	0.177379	2.131691	0.000000	0.004440	0.000000	-0.000016	-0.000002	0.000000	0.000000
63.433103	12.492147	24.164243	-0.127740	0.163164	2.133177	0.000000	0.004440	0.000000	-0.000016	-0.000002	0.000000	0.000000
63.730426	12.575299	24.070974	-0.121086	0.091493	2.134497	0.000000	-0.000795	0.000000	-0.000017	-0.000002	0.000000	0.000000
64.171386	12.842280	23.725210	-0.486664	0.689640	2.147691	0.000000	0.060691	0.000000	-0.000017	-0.000002	0.000000	0.000000
64.612346	13.440220	22.863802	-0.874477	1.256410	2.188125	0.000000	0.122868	0.000000	-0.000018	-0.000002	0.000000	0.000000
65.053306	14.396437	21.525944	-1.302242	1.766013	2.256259	0.000000	0.186445	0.000000	-0.000020	-0.000003	0.000000	0.000000
65.494266	15.754619	19.772507	-1.789502	2.195265	2.352868	0.000000	0.252146	0.000000	-0.000021	-0.000003	0.000000	0.000000
65.940226	17.599980	17.658468	-2.363211	2.525383	2.480628	0.000000	0.321120	0.000000	-0.000023	-0.000004	0.000000	0.000000
66.489286	19.965749	15.293613	-1.920049	1.807140	2.636570	0.000000	0.246069	0.000000	-0.000025	-0.000003	0.000000	0.000000
67.038346	21.767068	13.642587	-1.341265	1.217616	2.750043	0.000000	0.166653	0.000000	-0.000026	-0.000002	0.000000	0.000000
67.587406	22.876701	12.587790	-0.667741	0.714819	2.819034	0.000000	0.084281	0.000000	-0.000027	-0.000002	0.000000	0.000000
68.136466	23.216268	12.054093	0.052949	0.262938	2.842320	0.000000	0.000414	0.000000	-0.000028	-0.000001	0.000000	0.000000
68.435038	23.224721	11.886306	-0.020586	0.267524	2.844662	0.000000	0.007842	0.000000	-0.000028	-0.000001	0.000000	0.000000
68.768372	23.243232	11.717974	-0.034945	0.237473	2.847276	0.000000	0.007842	0.000000	-0.000028	-0.000001	0.000000	0.000000
69.101705	23.271315	11.569675	-0.049304	0.207423	2.849891	0.000000	0.007842	0.000000	-0.000028	-0.000001	0.000000	0.000000
69.436288	23.309129	11.440967	-0.063716	0.177259	2.852515	0.000000	0.007842	0.000000	-0.000029	-0.000001	0.000000	0.000000
69.733611	23.350826	11.343530	-0.137550	0.180101	2.854847	0.000000	0.015303	0.000000	-0.000029	-0.000001	0.000000	0.000000
70.282671	23.100818	11.373010	0.590191	-0.234111	2.840054	0.000000	-0.069107	0.000000	-0.000029	0.000000	0.000000	0.000000
