#ParticleID	Turn	x[m]	xp	y[m]	yp	z[m]	dE[GeV]# s	beta_x	beta_y	alpha_x	alpha_y	D_x	D_y	D_px	D_py	orbit_x	orbit_px	orbit_y	orbit_py
0.300000	11.815778	25.010962	-0.011223	-0.027367	2.618046	0.000000	0.000038	0.000000	-0.000001	0.000001	0.000000	0.000000
0.601250	11.830221	25.031081	-0.036722	-0.039421	2.618057	0.000000	0.000038	0.000000	-0.000001	0.000001	0.000000	0.000000
0.898573	11.859540	25.058060	-0.032805	-0.112767	2.618068	0.000000	-0.006382	0.000000	-0.000001	0.000001	0.000000	0.000000
1.339533	12.040624	24.879554	-0.379411	0.516039	2.631546	0.000000	0.067574	0.000000	-0.000000	0.000001	0.000000	0.000000
1.780493	12.533847	24.154766	-0.743352	1.121366	2.677775	0.000000	0.142300	0.000000	0.000000	0.000001	0.000000	0.000000
2.221453	13.361742	22.916674	-1.141254	1.675671	2.757281	0.000000	0.218647	0.000000	0.000001	0.000001	0.000000	0.000000
2.662413	14.562134	21.221608	-1.591297	2.153735	2.870968	0.000000	0.297484	0.000000	0.000001	0.000001	0.000000	0.000000
3.108373	16.210617	19.121836	-2.118333	2.534938	3.021995	0.000000	0.380198	0.000000	0.000002	0.000001	0.000000	0.000000
3.657433	18.324515	16.763493	-1.708906	1.785653	3.205474	0.000000	0.287160	0.000000	0.000003	0.000001	0.000000	0.000000
4.206493	19.919464	15.153701	-1.178770	1.163557	3.336394	0.000000	0.189028	0.000000	0.000003	0.000001	0.000000	0.000000
4.755553	20.882806	14.177800	-0.565372	0.624338	3.412433	0.000000	0.087544	0.000000	0.000004	0.000001	0.000000	0.000000
5.304613	21.146494	13.766277	0.087961	0.129590	3.432241	0.000000	-0.015494	0.000000	0.000004	0.000001	0.000000	0.000000
5.603185	21.131181	13.674068	0.018577	0.143274	3.430292	0.000000	-0.006526	0.000000	0.000005	0.000001	0.000000	0.000000
5.936519	21.124057	13.586844	0.002797	0.118397	3.428117	0.000000	-0.006526	0.000000	0.000005	0.000001	0.000000	0.000000
6.269852	21.127452	13.516206	-0.012983	0.093519	3.425941	0.000000	-0.006526	0.000000	0.000005	0.000001	0.000000	0.000000
6.604435	21.141440	13.461980	-0.028822	0.068549	3.423757	0.000000	-0.006526	0.000000	0.000005	0.000001	0.000000	0.000000
6.901758	21.162764	13.427816	-0.098189	0.081442	3.421816	0.000000	0.002414	0.000000	0.000006	0.000001	0.000000	0.000000
7.450818	20.909904	13.599166	0.555996	-0.395363	3.394939	0.000000	-0.100171	0.000000	0.000006	0.000001	0.000000	0.000000
7.999878	19.956083	14.306405	1.170909	-0.900329	3.312142	0.000000	-0.200980	0.000000	0.000006	0.000000	0.000000	0.000000
8.548938	18.368674	15.599906	1.703115	-1.469424	3.174894	0.000000	-0.298223	0.000000	0.000007	0.000000	0.000000	0.000000
9.097998	16.259805	17.571804	2.115021	-2.143182	2.985629	0.000000	-0.390177	0.000000	0.000007	0.000000	0.000000	0.000000
9.543958	14.614493	19.328870	1.587469	-1.780128	2.829933	0.000000	-0.308466	0.000000	0.000007	0.000000	0.000000	0.000000
9.984918	13.417768	20.708788	1.136733	-1.337313	2.711159	0.000000	-0.230753	0.000000	0.000007	0.000000	0.000000	0.000000
10.425878	12.594240	21.669754	0.737931	-0.833652	2.626042	0.000000	-0.155668	0.000000	0.000007	0.000001	0.000000	0.000000
10.866838	12.106284	22.168043	0.372844	-0.292059	2.573612	0.000000	-0.082355	0.000000	0.000007	0.000001	0.000000	0.000000
11.309048	11.931471	22.180464	0.053943	0.208372	2.553252	0.000000	-0.016242	0.000000	0.000008	0.000001	0.000000	0.000000
11.606371	11.906825	22.060716	0.028951	0.194385	2.548423	0.000000	-0.016242	0.000000	0.000008	0.000001	0.000000	0.000000
12.086371	11.898398	21.884945	-0.011396	0.171805	2.540626	0.000000	-0.016242	0.000000	0.000009	0.000001	0.000000	0.000000
12.566371	11.928704	21.730850	-0.051742	0.149225	2.532830	0.000000	-0.016242	0.000000	0.000009	0.000001	0.000000	0.000000
13.046371	11.997743	21.598433	-0.092089	0.126644	2.525033	0.000000	-0.016242	0.000000	0.000009	0.000001	0.000000	0.000000
13.526371	12.105515	21.487693	-0.132436	0.104064	2.517237	0.000000	-0.016242	0.000000	0.000010	0.000001	0.000000	0.000000
14.007621	12.252452	21.398427	-0.172888	0.081425	2.509420	0.000000	-0.016242	0.000000	0.000010	0.000001	0.000000	0.000000
14.304943	12.362690	21.354167	-0.167566	0.015077	2.504590	0.000000	-0.022383	0.000000	0.000011	0.000001	0.000000	0.000000
14.745903	12.669028	21.107145	-0.529777	0.542983	2.510353	0.000000	0.048548	0.000000	0.000011	0.000001	0.000000	0.000000
15.186863	13.304233	20.403709	-0.916192	1.046183	2.547486	0.000000	0.120032	0.000000	0.000012	0.000001	0.000000	0.000000
15.627823	14.297325	19.275866	-1.344465	1.501783	2.616412	0.000000	0.192884	0.000000	0.000012	0.000002	0.000000	0.000000
16.068783	15.693676	17.774931	-1.834163	1.889053	2.717915	0.000000	0.267932	0.000000	0.000013	0.000002	0.000000	0.000000
16.514743	17.580737	15.947692	-2.412417	2.191118	2.854847	0.000000	0.346494	0.000000	0.000014	0.000003	0.000000	0.000000
17.063803	20.004373	13.907392	-1.975606	1.546803	3.021358	0.000000	0.259147	0.000000	0.000016	0.000002	0.000000	0.000000
17.612863	21.868406	12.510337	-1.399249	1.012664	3.138575	0.000000	0.167202	0.000000	0.000017	0.000001	0.000000	0.000000
18.161923	23.041170	11.657017	-0.724055	0.550655	3.204420	0.000000	0.072292	0.000000	0.000017	0.000001	0.000000	0.000000
18.710983	23.439827	11.286654	0.002282	0.127868	3.217724	0.000000	-0.023900	0.000000	0.000018	0.000000	0.000000	0.000000
19.009556	23.478847	11.200785	-0.071735	0.130245	3.213098	0.000000	-0.015494	0.000000	0.000018	0.000000	0.000000	0.000000
19.342889	23.531427	11.124043	-0.086005	0.099980	3.207934	0.000000	-0.015494	0.000000	0.000018	0.000000	0.000000	0.000000
19.676223	23.593520	11.067478	-0.100275	0.069715	3.202769	0.000000	-0.015494	0.000000	0.000018	0.000000	0.000000	0.000000
20.010806	23.665707	11.030854	-0.231852	0.093991	3.197605	0.000000	0.000349	0.000000	0.000018	0.000001	0.000000	0.000000
20.308129	23.807513	10.983047	-0.307286	0.095491	3.197708	0.000000	0.008703	0.000000	0.000018	0.000001	0.000000	0.000000
20.857189	23.734330	11.100382	0.439784	-0.310454	3.176262	0.000000	-0.086709	0.000000	0.000018	-0.000000	0.000000	0.000000
21.406249	22.853047	11.672947	1.155790	-0.738512	3.102774	0.000000	-0.180583	0.000000	0.000018	-0.000001	0.000000	0.000000
21.955309	21.225912	12.741526	1.790157	-1.219172	2.978549	0.000000	-0.271253	0.000000	0.000018	-0.000001	0.000000	0.000000
22.504369	18.967858	14.382231	2.298076	-1.786672	2.805790	0.000000	-0.357113	0.000000	0.000017	-0.000002	0.000000	0.000000
22.950329	17.188312	15.855268	1.706380	-1.502464	2.663830	0.000000	-0.279888	0.000000	0.000016	-0.000001	0.000000	0.000000
23.391289	15.912726	17.029698	1.197341	-1.150749	2.556736	0.000000	-0.206307	0.000000	0.000016	-0.000001	0.000000	0.000000
23.832249	15.060344	17.869583	0.743005	-0.746676	2.481540	0.000000	-0.135074	0.000000	0.000015	-0.000001	0.000000	0.000000
24.273209	14.592224	18.336709	0.322614	-0.308630	2.437386	0.000000	-0.065381	0.000000	0.000015	-0.000000	0.000000	0.000000
24.715418	14.487098	18.409576	-0.047602	0.098249	2.423767	0.000000	-0.002374	0.000000	0.000015	0.000000	0.000000	0.000000
25.012741	14.521521	18.356000	-0.068172	0.081943	2.423061	0.000000	-0.002374	0.000000	0.000015	0.000000	0.000000	0.000000
25.346075	14.574656	18.307465	-0.091233	0.063662	2.422270	0.000000	-0.002374	0.000000	0.000015	0.000000	0.000000	0.000000
25.679408	14.643165	18.271118	-0.114294	0.045381	2.421478	0.000000	-0.002374	0.000000	0.000016	0.000000	0.000000	0.000000
26.013991	14.727093	18.247260	-0.017966	-0.121000	2.420659	0.000000	-0.022012	0.000000	0.000016	0.000000	0.000000	0.000000
26.311314	14.743780	18.324128	-0.002010	-0.182462	2.414114	0.000000	-0.027932	0.000000	0.000016	0.000000	0.000000	0.000000
26.752274	14.927206	18.286312	-0.415536	0.267894	2.416911	0.000000	0.040629	0.000000	0.000016	0.000000	0.000000	0.000000
27.193234	15.482289	17.855196	-0.848046	0.706062	2.450013	0.000000	0.109653	0.000000	0.000016	0.000001	0.000000	0.000000
27.634194	16.434391	17.050394	-1.319301	1.112104	2.513798	0.000000	0.179925	0.000000	0.000017	0.000001	0.000000	0.000000
28.075154	17.827009	15.908526	-1.850831	1.467547	2.608992	0.000000	0.252246	0.000000	0.000017	0.000002	0.000000	0.000000
28.521114	19.747964	14.464345	-2.471886	1.757129	2.738283	0.000000	0.327884	0.000000	0.000018	0.000002	0.000000	0.000000
29.070174	22.189513	12.855231	-1.948568	1.190839	2.895640	0.000000	0.244462	0.000000	0.000019	0.000002	0.000000	0.000000
29.619234	23.976952	11.818024	-1.287613	0.709370	3.005933	0.000000	0.156703	0.000000	0.000020	0.000001	0.000000	0.000000
30.168294	24.984027	11.278847	-0.535708	0.278427	3.067207	0.000000	0.066165	0.000000	0.000020	0.000000	0.000000	0.000000
30.717354	25.139602	11.199294	0.254037	-0.132683	3.078375	0.000000	-0.025547	0.000000	0.000020	-0.000000	0.000000	0.000000
31.015927	25.030793	11.269100	0.176065	-0.130371	3.073148	0.000000	-0.017505	0.000000	0.000020	-0.000000	0.000000	0.000000
31.349260	24.917993	11.366041	0.162336	-0.160454	3.067313	0.000000	-0.017505	0.000000	0.000020	-0.000000	0.000000	0.000000
31.682593	24.814346	11.483038	0.148606	-0.190536	3.061478	0.000000	-0.017505	0.000000	0.000020	-0.000000	0.000000	0.000000
32.017177	24.719515	11.620641	0.134825	-0.220731	3.055622	0.000000	-0.017505	0.000000	0.000020	-0.000000	0.000000	0.000000
32.314499	24.642983	11.759875	0.058201	-0.216842	3.050417	0.000000	-0.009536	0.000000	0.000020	-0.000000	0.000000	0.000000
32.863559	24.156863	12.237218	0.821925	-0.657672	3.020293	0.000000	-0.100035	0.000000	0.000019	-0.000001	0.000000	0.000000
33.412619	22.859155	13.221374	1.527591	-1.145346	2.940894	0.000000	-0.188759	0.000000	0.000019	-0.000001	0.000000	0.000000
33.961679	20.841523	14.782442	2.125357	-1.714601	2.813629	0.000000	-0.274136	0.000000	0.000018	-0.000002	0.000000	0.000000
34.510739	18.246482	17.031613	2.572997	-2.405983	2.640755	0.000000	-0.354649	0.000000	0.000016	-0.000003	0.000000	0.000000
34.956699	16.228741	19.043410	1.967700	-2.086340	2.498942	0.000000	-0.281704	0.000000	0.000015	-0.000002	0.000000	0.000000
35.397659	14.724154	20.707247	1.457315	-1.672516	2.390107	0.000000	-0.212396	0.000000	0.000015	-0.000002	0.000000	0.000000
35.838619	13.638736	21.971045	1.013510	-1.182594	2.311273	0.000000	-0.145506	0.000000	0.000014	-0.000001	0.000000	0.000000
36.279579	12.922899	22.777304	0.616009	-0.638865	2.261541	0.000000	-0.080274	0.000000	0.000013	-0.000001	0.000000	0.000000
36.721789	12.543243	23.089645	0.277303	-0.122737	2.240318	0.000000	-0.021449	0.000000	0.000013	-0.000001	0.000000	0.000000
37.019112	12.385936	23.166516	0.251777	-0.135808	2.233941	0.000000	-0.021449	0.000000	0.000013	-0.000001	0.000000	0.000000
37.352445	12.227624	23.261940	0.223158	-0.150462	2.226792	0.000000	-0.021449	0.000000	0.000012	-0.000001	0.000000	0.000000
37.685779	12.088391	23.367132	0.194540	-0.165116	2.219643	0.000000	-0.021449	0.000000	0.000012	-0.000001	0.000000	0.000000
38.020362	11.967823	23.482544	0.165815	-0.179825	2.212467	0.000000	-0.021449	0.000000	0.000012	-0.000001	0.000000	0.000000
38.317684	11.876811	23.593362	0.169410	-0.250748	2.206090	0.000000	-0.026858	0.000000	0.000011	-0.000001	0.000000	0.000000
38.758644	11.878830	23.553178	-0.174005	0.341530	2.208177	0.000000	0.036331	0.000000	0.000011	-0.000001	0.000000	0.000000
39.199604	12.186061	22.995534	-0.525370	0.918269	2.238192	0.000000	0.099933	0.000000	0.000011	-0.000000	0.000000	0.000000
39.640564	12.812540	21.945805	-0.900737	1.453227	2.296477	0.000000	0.164674	0.000000	0.000011	0.000000	0.000000	0.000000
40.081524	13.786891	20.451750	-1.317257	1.922065	2.383696	0.000000	0.231290	0.000000	0.000011	0.000000	0.000000	0.000000
40.527484	15.171203	18.558779	-1.797786	2.304733	2.502314	0.000000	0.300946	0.000000	0.000011	0.000001	0.000000	0.000000
41.076544	16.937766	16.431563	-1.400600	1.592424	2.647018	0.000000	0.225374	0.000000	0.000011	0.000000	0.000000	0.000000
41.625604	18.210932	15.020045	-0.904483	0.993540	2.749068	0.000000	0.145805	0.000000	0.000011	-0.000000	0.000000	0.000000
42.174664	18.900770	14.223687	-0.344478	0.465424	2.806654	0.000000	0.063649	0.000000	0.000011	-0.000001	0.000000	0.000000
42.723724	18.958555	13.985766	0.239859	-0.029542	2.818755	0.000000	-0.019636	0.000000	0.000011	-0.000001	0.000000	0.000000
43.022297	18.849773	13.987962	0.174009	-0.014352	2.815092	0.000000	-0.012271	0.000000	0.000011	-0.000001	0.000000	0.000000
43.502297	18.695318	14.018215	0.147774	-0.048674	2.809202	0.000000	-0.012271	0.000000	0.000010	-0.000001	0.000000	0.000000
43.982297	18.566048	14.081417	0.121538	-0.082997	2.803312	0.000000	-0.012271	0.000000	0.000010	-0.000001	0.000000	0.000000
44.462297	18.461964	14.177568	0.095303	-0.117319	2.797422	0.000000	-0.012271	0.000000	0.000009	-0.000001	0.000000	0.000000
44.942297	18.383067	14.306669	0.069067	-0.151641	2.791532	0.000000	-0.012271	0.000000	0.000009	-0.000001	0.000000	0.000000
45.423547	18.329476	14.469005	-0.048051	-0.114364	2.785644	0.000000	0.001530	0.000000	0.000009	-0.000001	0.000000	0.000000
45.720870	18.362883	14.543201	-0.112285	-0.097186	2.786100	0.000000	0.008809	0.000000	0.000008	-0.000001	0.000000	0.000000
46.269930	18.176990	14.931204	0.448848	-0.613653	2.768362	0.000000	-0.073326	0.000000	0.000008	-0.000001	0.000000	0.000000
46.818990	17.388747	15.906881	0.978276	-1.173830	2.705819	0.000000	-0.154160	0.000000	0.000007	-0.000001	0.000000	0.000000
47.368050	16.053832	17.539726	1.438604	-1.817616	2.599579	0.000000	-0.232261	0.000000	0.000006	-0.000002	0.000000	0.000000
47.917110	14.266537	19.946043	1.797316	-2.590866	2.451527	0.000000	-0.306241	0.000000	0.000005	-0.000002	0.000000	0.000000
48.363070	12.875669	22.085471	1.332551	-2.186319	2.330250	0.000000	-0.237937	0.000000	0.000005	-0.000002	0.000000	0.000000
48.804030	11.880675	23.798455	0.932436	-1.683569	2.239790	0.000000	-0.172741	0.000000	0.000004	-0.000001	0.000000	0.000000
49.244990	11.218502	25.032453	0.574922	-1.104218	2.177619	0.000000	-0.109512	0.000000	0.000003	-0.000001	0.000000	0.000000
49.685950	10.858898	25.731319	0.243674	-0.474626	2.143028	0.000000	-0.047530	0.000000	0.000003	-0.000001	0.000000	0.000000
50.128160	10.785559	25.862973	-0.050109	0.113090	2.135634	0.000000	0.008674	0.000000	0.000002	-0.000001	0.000000	0.000000
50.425482	10.823573	25.799186	-0.077745	0.101447	2.138213	0.000000	0.008674	0.000000	0.000002	-0.000001	0.000000	0.000000
50.758816	10.885731	25.735906	-0.108728	0.088394	2.141105	0.000000	0.008674	0.000000	0.000002	-0.000001	0.000000	0.000000
51.092149	10.968544	25.681328	-0.139711	0.075340	2.143997	0.000000	0.008674	0.000000	0.000001	-0.000001	0.000000	0.000000
51.426732	11.072215	25.635817	-0.080986	-0.145732	2.146878	0.000000	-0.008743	0.000000	0.000001	-0.000001	0.000000	0.000000
51.724055	11.128409	25.725997	-0.080725	-0.220664	2.144279	0.000000	-0.014001	0.000000	0.000000	-0.000001	0.000000	0.000000
52.165015	11.344902	25.634395	-0.412097	0.427608	2.151694	0.000000	0.047663	0.000000	-0.000000	-0.000001	0.000000	0.000000
52.605975	11.860806	24.977496	-0.762298	1.056424	2.186394	0.000000	0.109870	0.000000	-0.000001	-0.000001	0.000000	0.000000
53.046935	12.699690	23.785190	-1.147325	1.637174	2.248775	0.000000	0.173328	0.000000	-0.000001	-0.000001	0.000000	0.000000
53.487895	13.899881	22.111725	-1.584770	2.143434	2.339546	0.000000	0.238760	0.000000	-0.000002	-0.000001	0.000000	0.000000
53.933855	15.536787	20.008221	-2.098849	2.553506	2.461246	0.000000	0.307310	0.000000	-0.000002	-0.000001	0.000000	0.000000
54.482915	17.644254	17.641245	-1.716749	1.782901	2.609799	0.000000	0.233007	0.000000	-0.000003	-0.000001	0.000000	0.000000
55.031975	19.262655	16.046204	-1.213387	1.139288	2.716358	0.000000	0.154570	0.000000	-0.000004	-0.000001	0.000000	0.000000
55.581035	20.277674	15.109485	-0.624318	0.576823	2.779033	0.000000	0.073392	0.000000	-0.000004	-0.000001	0.000000	0.000000
56.130095	20.617614	14.764369	0.008850	0.055445	2.796713	0.000000	-0.009088	0.000000	-0.000005	-0.000001	0.000000	0.000000
56.428668	20.648831	14.714315	-0.059533	0.073622	2.796182	0.000000	-0.001780	0.000000	-0.000005	-0.000001	0.000000	0.000000
56.762001	20.693920	14.672826	-0.075733	0.050845	2.795589	0.000000	-0.001780	0.000000	-0.000005	-0.000001	0.000000	0.000000
57.095334	20.749809	14.646521	-0.091933	0.028069	2.794996	0.000000	-0.001780	0.000000	-0.000006	-0.000001	0.000000	0.000000
57.429918	20.816768	14.635387	-0.108194	0.005207	2.794400	0.000000	-0.001780	0.000000	-0.000006	-0.000001	0.000000	0.000000
57.727240	20.885401	14.638331	-0.177217	0.023140	2.793871	0.000000	0.005520	0.000000	-0.000006	-0.000001	0.000000	0.000000
58.276300	20.723697	14.894011	0.469983	-0.491556	2.774264	0.000000	-0.076837	0.000000	-0.000007	-0.000001	0.000000	0.000000
58.825360	19.865395	15.730683	1.083985	-1.041265	2.709747	0.000000	-0.157831	0.000000	-0.000007	-0.000000	0.000000	0.000000
59.374420	18.371119	17.207943	1.621420	-1.665141	2.601462	0.000000	-0.236025	0.000000	-0.000007	-0.000000	0.000000	0.000000
59.923480	16.346419	19.431011	2.044326	-2.407622	2.451332	0.000000	-0.310033	0.000000	-0.000007	0.000000	0.000000	0.000000
60.369440	14.761703	21.406896	1.521751	-2.004308	2.328359	0.000000	-0.241756	0.000000	-0.000007	-0.000000	0.000000	0.000000
60.810400	13.621889	22.963005	1.072904	-1.511175	2.236201	0.000000	-0.176630	0.000000	-0.000007	-0.000000	0.000000	0.000000
61.251360	12.854892	24.052113	0.673075	-0.949284	2.172290	0.000000	-0.113516	0.000000	-0.000008	-0.000001	0.000000	0.000000
61.692320	12.425671	24.624667	0.303997	-0.344202	2.135900	0.000000	-0.051694	0.000000	-0.000008	-0.000001	0.000000	0.000000
62.134530	12.314668	24.654076	-0.021093	0.216024	2.126620	0.000000	0.004323	0.000000	-0.000008	-0.000001	0.000000	0.000000
62.431853	12.334393	24.529372	-0.045247	0.203401	2.127905	0.000000	0.004323	0.000000	-0.000009	-0.000001	0.000000	0.000000
62.765186	12.373584	24.398488	-0.072328	0.189250	2.129346	0.000000	0.004323	0.000000	-0.000009	-0.000001	0.000000	0.000000
63.098520	12.430829	24.277039	-0.099408	0.175098	2.130788	0.000000	0.004323	0.000000	-0.000009	-0.000001	0.000000	0.000000
63.433103	12.506444	24.164621	-0.126589	0.160894	2.132234	0.000000	0.004323	0.000000	-0.000010	-0.000001	0.000000	0.000000
63.730426	12.588901	24.072699	-0.119869	0.089232	2.133520	0.000000	-0.000910	0.000000	-0.000010	-0.000001	0.000000	0.000000
64.171386	12.854934	23.728890	-0.485724	0.687484	2.146657	0.000000	0.060550	0.000000	-0.000010	-0.000001	0.000000	0.000000
64.612346	13.452151	22.869301	-0.873771	1.254456	2.187023	0.000000	0.122700	0.000000	-0.000011	-0.000001	0.000000	0.000000
65.053306	14.407837	21.533043	-1.301737	1.764351	2.255076	0.000000	0.186248	0.000000	-0.000012	-0.000002	0.000000	0.000000
65.494266	15.765654	19.780914	-1.789176	2.193970	2.351591	0.000000	0.251917	0.000000	-0.000012	-0.000002	0.000000	0.000000
65.940226	17.610799	17.667842	-2.363049	2.524518	2.479240	0.000000	0.320856	0.000000	-0.000013	-0.000002	0.000000	0.000000
66.489286	19.976120	15.303972	-1.919399	1.806199	2.635049	0.000000	0.245852	0.000000	-0.000015	-0.000002	0.000000	0.000000
67.038346	21.776477	13.654051	-1.340172	1.216532	2.748417	0.000000	0.166487	0.000000	-0.000016	-0.000001	0.000000	0.000000
67.587406	22.884700	12.600559	-0.666282	0.713515	2.817331	0.000000	0.084169	0.000000	-0.000016	-0.000001	0.000000	0.000000
68.136466	23.222511	12.068457	0.054670	0.261320	2.840571	0.000000	0.000358	0.000000	-0.000017	-0.000000	0.000000	0.000000
68.435038	23.229942	11.901599	-0.018872	0.265995	2.842895	0.000000	0.007781	0.000000	-0.000017	-0.000000	0.000000	0.000000
68.768372	23.247308	11.734265	-0.033226	0.236006	2.845489	0.000000	0.007781	0.000000	-0.000017	-0.000000	0.000000	0.000000
69.101705	23.274243	11.586924	-0.047581	0.206017	2.848083	0.000000	0.007781	0.000000	-0.000017	-0.000000	0.000000	0.000000
69.436288	23.310903	11.459136	-0.061989	0.175916	2.850686	0.000000	0.007781	0.000000	-0.000017	-0.000000	0.000000	0.000000
69.733611	23.351572	11.362482	-0.135815	0.178859	2.853000	0.000000	0.015237	0.000000	-0.000017	-0.000001	0.000000	0.000000
70.282671	23.099662	11.393622	0.591900	-0.235909	2.838187	0.000000	-0.069113	0.000000	-0.000018	0.000000	0.000000	0.000000
