#ParticleID	Turn	x[m]	xp	y[m]	yp	z[m]	dE[GeV]# s	beta_x	beta_y	alpha_x	alpha_y	D_x	D_y	D_px	D_py	orbit_x	orbit_px	orbit_y	orbit_py
0.300000	11.810429	25.032786	-0.010645	-0.027135	2.618086	0.000000	0.000022	0.000000	-0.000001	0.000001	0.000000	0.000000
0.601250	11.824527	25.052762	-0.036155	-0.039178	2.618093	0.000000	0.000022	0.000000	-0.000001	0.000001	0.000000	0.000000
0.898573	11.853513	25.079594	-0.032264	-0.112566	2.618099	0.000000	-0.006398	0.000000	-0.000000	0.000001	0.000000	0.000000
1.339533	12.034055	24.900660	-0.378720	0.516804	2.631570	0.000000	0.067559	0.000000	0.000000	0.000001	0.000000	0.000000
1.780493	12.526590	24.174960	-0.742477	1.122661	2.677792	0.000000	0.142285	0.000000	0.000001	0.000002	0.000000	0.000000
2.221453	13.353619	22.935512	-1.140157	1.677438	2.757291	0.000000	0.218632	0.000000	0.000002	0.000002	0.000000	0.000000
2.662413	14.552927	21.238710	-1.589927	2.155892	2.870972	0.000000	0.297469	0.000000	0.000003	0.000002	0.000000	0.000000
3.108373	16.200042	19.136873	-2.116624	2.537388	3.021992	0.000000	0.380184	0.000000	0.000003	0.000002	0.000000	0.000000
3.657433	18.312204	16.776180	-1.707473	1.787509	3.205463	0.000000	0.287146	0.000000	0.000004	0.000002	0.000000	0.000000
4.206493	19.905779	15.164615	-1.177714	1.164950	3.336376	0.000000	0.189015	0.000000	0.000005	0.000001	0.000000	0.000000
4.755553	20.868204	14.187391	-0.564768	0.625369	3.412407	0.000000	0.087531	0.000000	0.000006	0.000001	0.000000	0.000000
5.304613	21.131499	13.774901	0.088071	0.130330	3.432208	0.000000	-0.015506	0.000000	0.000006	0.000001	0.000000	0.000000
5.603185	21.116099	13.682235	0.018716	0.144045	3.430256	0.000000	-0.006539	0.000000	0.000007	0.000001	0.000000	0.000000
5.936519	21.108886	13.594494	0.002925	0.119177	3.428076	0.000000	-0.006539	0.000000	0.000007	0.000001	0.000000	0.000000
6.269852	21.112199	13.523333	-0.012866	0.094309	3.425896	0.000000	-0.006539	0.000000	0.000007	0.000001	0.000000	0.000000
6.604435	21.126112	13.468576	-0.028717	0.069348	3.423708	0.000000	-0.006539	0.000000	0.000008	0.000001	0.000000	0.000000
6.901758	21.147377	13.433934	-0.098053	0.082264	3.421764	0.000000	0.002401	0.000000	0.000008	0.000001	0.000000	0.000000
7.450818	20.894650	13.604471	0.555618	-0.394697	3.394880	0.000000	-0.100182	0.000000	0.000009	0.000001	0.000000	0.000000
7.999878	19.941516	14.311043	1.170043	-0.899773	3.312077	0.000000	-0.200988	0.000000	0.000009	0.000001	0.000000	0.000000
8.548938	18.355301	15.603975	1.701821	-1.468937	3.174825	0.000000	-0.298230	0.000000	0.000009	0.000000	0.000000	0.000000
9.097998	16.248045	17.575361	2.113392	-2.142730	2.985557	0.000000	-0.390181	0.000000	0.000009	-0.000000	0.000000	0.000000
9.543958	14.604025	19.331951	1.586191	-1.779518	2.829859	0.000000	-0.308472	0.000000	0.000009	0.000000	0.000000	0.000000
9.984918	13.408296	20.711272	1.135745	-1.336573	2.711082	0.000000	-0.230761	0.000000	0.000009	0.000000	0.000000	0.000000
10.425878	12.585529	21.671540	0.737187	-0.832816	2.625960	0.000000	-0.155678	0.000000	0.000010	0.000001	0.000000	0.000000
10.866838	12.098134	22.169065	0.372310	-0.291166	2.573526	0.000000	-0.082368	0.000000	0.000010	0.000001	0.000000	0.000000
11.309048	11.923709	22.180685	0.053576	0.209283	2.553160	0.000000	-0.016256	0.000000	0.000010	0.000001	0.000000	0.000000
11.606371	11.899286	22.060396	0.028569	0.195292	2.548326	0.000000	-0.016256	0.000000	0.000011	0.000001	0.000000	0.000000
12.086371	11.891238	21.883758	-0.011803	0.172703	2.540523	0.000000	-0.016256	0.000000	0.000011	0.000001	0.000000	0.000000
12.566371	11.921947	21.728805	-0.052174	0.150115	2.532719	0.000000	-0.016256	0.000000	0.000012	0.000001	0.000000	0.000000
13.046371	11.991412	21.595537	-0.092546	0.127527	2.524916	0.000000	-0.016256	0.000000	0.000012	0.000001	0.000000	0.000000
13.526371	12.099634	21.483954	-0.132917	0.104938	2.517112	0.000000	-0.016256	0.000000	0.000013	0.000001	0.000000	0.000000
14.007621	12.247046	21.393850	-0.173394	0.082291	2.509289	0.000000	-0.016256	0.000000	0.000013	0.000001	0.000000	0.000000
14.304943	12.357589	21.349076	-0.168100	0.015953	2.504455	0.000000	-0.022397	0.000000	0.000014	0.000001	0.000000	0.000000
14.745903	12.664354	21.101348	-0.530213	0.543702	2.510211	0.000000	0.048531	0.000000	0.000014	0.000001	0.000000	0.000000
15.186863	13.299907	20.397359	-0.916549	1.046714	2.547335	0.000000	0.120011	0.000000	0.000015	0.000002	0.000000	0.000000
15.627823	14.293286	19.269140	-1.344760	1.502101	2.616250	0.000000	0.192859	0.000000	0.000016	0.000002	0.000000	0.000000
16.068783	15.689875	17.768025	-1.834409	1.889143	2.717741	0.000000	0.267903	0.000000	0.000017	0.000003	0.000000	0.000000
16.514743	17.577138	15.940810	-2.412625	2.190975	2.854659	0.000000	0.346460	0.000000	0.000018	0.000003	0.000000	0.000000
17.063803	20.001105	13.900582	-1.975996	1.546814	3.021153	0.000000	0.259119	0.000000	0.000020	0.000003	0.000000	0.000000
17.612863	21.865654	12.503431	-1.399793	1.012830	3.138356	0.000000	0.167182	0.000000	0.000021	0.000002	0.000000	0.000000
18.161923	23.039084	11.649840	-0.724715	0.550987	3.204191	0.000000	0.072279	0.000000	0.000022	0.000001	0.000000	0.000000
18.710983	23.438508	11.279010	0.001553	0.128390	3.217490	0.000000	-0.023906	0.000000	0.000022	0.000000	0.000000	0.000000
19.009556	23.477960	11.192848	-0.072460	0.130723	3.212862	0.000000	-0.015501	0.000000	0.000023	0.000001	0.000000	0.000000
19.342889	23.531024	11.115796	-0.086732	0.100434	3.207695	0.000000	-0.015501	0.000000	0.000023	0.000001	0.000000	0.000000
19.676223	23.593603	11.058937	-0.101004	0.070144	3.202528	0.000000	-0.015501	0.000000	0.000023	0.000001	0.000000	0.000000
20.010806	23.666278	11.022035	-0.232586	0.094350	3.197361	0.000000	0.000341	0.000000	0.000023	0.000001	0.000000	0.000000
20.308129	23.808521	10.974022	-0.308024	0.095802	3.197463	0.000000	0.008694	0.000000	0.000023	0.000001	0.000000	0.000000
20.857189	23.736127	11.090874	0.439096	-0.309882	3.176013	0.000000	-0.086710	0.000000	0.000023	-0.000000	0.000000	0.000000
21.406249	22.855550	11.662652	1.155199	-0.737639	3.102527	0.000000	-0.180576	0.000000	0.000023	-0.000001	0.000000	0.000000
21.955309	21.228991	12.730079	1.789706	-1.217936	2.978308	0.000000	-0.271239	0.000000	0.000023	-0.000002	0.000000	0.000000
22.504369	18.971341	14.369188	2.297796	-1.784984	2.805559	0.000000	-0.357090	0.000000	0.000021	-0.000002	0.000000	0.000000
22.950329	17.192061	15.840852	1.706060	-1.501084	2.663608	0.000000	-0.279872	0.000000	0.000021	-0.000002	0.000000	0.000000
23.391289	15.916780	17.014224	1.196966	-1.149738	2.556520	0.000000	-0.206296	0.000000	0.000020	-0.000001	0.000000	0.000000
23.832249	15.064759	17.853398	0.742558	-0.746081	2.481328	0.000000	-0.135069	0.000000	0.000020	-0.000001	0.000000	0.000000
24.273209	14.597072	18.320193	0.322076	-0.308477	2.437175	0.000000	-0.065381	0.000000	0.000019	-0.000000	0.000000	0.000000
24.715418	14.492472	18.393123	-0.048245	0.097996	2.423555	0.000000	-0.002379	0.000000	0.000019	0.000000	0.000000	0.000000
25.012741	14.527275	18.339703	-0.068809	0.081675	2.422848	0.000000	-0.002379	0.000000	0.000019	0.000000	0.000000	0.000000
25.346075	14.580832	18.291352	-0.091863	0.063379	2.422054	0.000000	-0.002379	0.000000	0.000019	0.000000	0.000000	0.000000
25.679408	14.649758	18.255198	-0.114917	0.045082	2.421261	0.000000	-0.002379	0.000000	0.000020	0.000000	0.000000	0.000000
26.013991	14.734100	18.231545	-0.018524	-0.121187	2.420441	0.000000	-0.022016	0.000000	0.000020	0.000000	0.000000	0.000000
26.311314	14.751117	18.308528	-0.002543	-0.182624	2.413895	0.000000	-0.027934	0.000000	0.000020	0.000000	0.000000	0.000000
26.752274	14.935094	18.271041	-0.416257	0.267313	2.416689	0.000000	0.040621	0.000000	0.000020	0.000001	0.000000	0.000000
27.193234	15.490907	17.840613	-0.848988	0.705087	2.449787	0.000000	0.109639	0.000000	0.000020	0.000001	0.000000	0.000000
27.634194	16.443952	17.036829	-1.320506	1.110781	2.513564	0.000000	0.179905	0.000000	0.000021	0.000002	0.000000	0.000000
28.075154	17.837771	15.896260	-1.852356	1.465935	2.608748	0.000000	0.252220	0.000000	0.000022	0.000002	0.000000	0.000000
28.521114	19.760255	14.453619	-2.473803	1.755301	2.738025	0.000000	0.327852	0.000000	0.000023	0.000003	0.000000	0.000000
29.070174	22.203744	12.846274	-1.950163	1.189426	2.895366	0.000000	0.244438	0.000000	0.000024	0.000002	0.000000	0.000000
29.619234	23.992706	11.810437	-1.288774	0.708272	3.005649	0.000000	0.156688	0.000000	0.000025	0.000001	0.000000	0.000000
30.168294	25.000778	11.272330	-0.536352	0.277565	3.066917	0.000000	0.066159	0.000000	0.000025	0.000000	0.000000	0.000000
30.717354	25.156754	11.193623	0.253956	-0.133370	3.078084	0.000000	-0.025543	0.000000	0.000025	-0.000000	0.000000	0.000000
31.015927	25.048016	11.263853	0.175950	-0.131092	3.072859	0.000000	-0.017502	0.000000	0.000025	-0.000000	0.000000	0.000000
31.349260	24.935289	11.361282	0.162231	-0.161194	3.067025	0.000000	-0.017502	0.000000	0.000025	-0.000000	0.000000	0.000000
31.682593	24.831709	11.478779	0.148511	-0.191296	3.061191	0.000000	-0.017502	0.000000	0.000025	-0.000000	0.000000	0.000000
32.017177	24.736938	11.616897	0.134740	-0.221510	3.055335	0.000000	-0.017502	0.000000	0.000025	-0.000000	0.000000	0.000000
32.314499	24.660454	11.756600	0.058082	-0.217649	3.050132	0.000000	-0.009534	0.000000	0.000024	-0.000000	0.000000	0.000000
32.863559	24.174146	12.234797	0.822384	-0.658431	3.020011	0.000000	-0.100024	0.000000	0.000024	-0.000001	0.000000	0.000000
33.412619	22.875629	13.219785	1.528597	-1.146111	2.940620	0.000000	-0.188739	0.000000	0.000023	-0.000002	0.000000	0.000000
33.961679	20.856622	14.781722	2.126838	-1.715427	2.813369	0.000000	-0.274107	0.000000	0.000022	-0.000003	0.000000	0.000000
34.510739	18.259740	17.031861	2.574849	-2.406929	2.640514	0.000000	-0.354613	0.000000	0.000020	-0.000003	0.000000	0.000000
34.956699	16.240532	19.044544	1.969150	-2.087373	2.498716	0.000000	-0.281674	0.000000	0.000019	-0.000003	0.000000	0.000000
35.397659	14.734817	20.709313	1.458431	-1.673588	2.389893	0.000000	-0.212371	0.000000	0.000018	-0.000002	0.000000	0.000000
35.838619	13.648542	21.974057	1.014345	-1.183656	2.311069	0.000000	-0.145486	0.000000	0.000017	-0.000002	0.000000	0.000000
36.279579	12.932078	22.781230	0.616601	-0.639869	2.261345	0.000000	-0.080259	0.000000	0.000016	-0.000001	0.000000	0.000000
36.721789	12.551997	23.094417	0.277699	-0.123648	2.240127	0.000000	-0.021439	0.000000	0.000016	-0.000001	0.000000	0.000000
37.019112	12.394450	23.171830	0.252185	-0.136719	2.233753	0.000000	-0.021439	0.000000	0.000015	-0.000001	0.000000	0.000000
37.352445	12.235862	23.267861	0.223581	-0.151373	2.226607	0.000000	-0.021439	0.000000	0.000015	-0.000001	0.000000	0.000000
37.685779	12.096343	23.373661	0.194976	-0.166028	2.219462	0.000000	-0.021439	0.000000	0.000015	-0.000001	0.000000	0.000000
38.020362	11.975477	23.489683	0.166265	-0.180737	2.212289	0.000000	-0.021439	0.000000	0.000014	-0.000001	0.000000	0.000000
38.317684	11.884195	23.601043	0.169891	-0.251677	2.205915	0.000000	-0.026848	0.000000	0.000014	-0.000001	0.000000	0.000000
38.758644	11.885862	23.561586	-0.173687	0.340817	2.208006	0.000000	0.036337	0.000000	0.000014	-0.000001	0.000000	0.000000
39.199604	12.192879	23.004464	-0.525201	0.917805	2.238022	0.000000	0.099935	0.000000	0.000013	-0.000000	0.000000	0.000000
39.640564	12.819273	21.955026	-0.900710	1.453033	2.296307	0.000000	0.164671	0.000000	0.000013	-0.000000	0.000000	0.000000
40.081524	13.793660	20.461020	-1.317369	1.922149	2.383524	0.000000	0.231283	0.000000	0.000013	0.000000	0.000000	0.000000
40.527484	15.178137	18.567850	-1.798043	2.305094	2.502139	0.000000	0.300934	0.000000	0.000013	0.000001	0.000000	0.000000
41.076544	16.944837	16.440370	-1.400591	1.592544	2.646837	0.000000	0.225368	0.000000	0.000014	0.000000	0.000000	0.000000
41.625604	18.217846	15.028848	-0.904208	0.993428	2.748886	0.000000	0.145805	0.000000	0.000014	-0.000000	0.000000	0.000000
42.174664	18.907244	14.232743	-0.343956	0.465072	2.806474	0.000000	0.063655	0.000000	0.000013	-0.000001	0.000000	0.000000
42.723724	18.964335	13.995350	0.240591	-0.030158	2.818580	0.000000	-0.019624	0.000000	0.000013	-0.000001	0.000000	0.000000
43.022297	18.855125	13.997895	0.174728	-0.014929	2.814920	0.000000	-0.012260	0.000000	0.000012	-0.000001	0.000000	0.000000
43.502297	18.699979	14.028690	0.148493	-0.049228	2.809035	0.000000	-0.012260	0.000000	0.000012	-0.000001	0.000000	0.000000
43.982297	18.570018	14.092412	0.122259	-0.083526	2.803151	0.000000	-0.012260	0.000000	0.000011	-0.000001	0.000000	0.000000
44.462297	18.465243	14.189061	0.096024	-0.117825	2.797267	0.000000	-0.012260	0.000000	0.000011	-0.000001	0.000000	0.000000
44.942297	18.385652	14.318636	0.069790	-0.152123	2.791382	0.000000	-0.012260	0.000000	0.000010	-0.000001	0.000000	0.000000
45.423547	18.331365	14.481424	-0.047337	-0.114761	2.785500	0.000000	0.001541	0.000000	0.000010	-0.000001	0.000000	0.000000
45.720870	18.364346	14.555851	-0.111571	-0.097534	2.785958	0.000000	0.008819	0.000000	0.000010	-0.000001	0.000000	0.000000
46.269930	18.177648	14.944450	0.449590	-0.614396	2.768228	0.000000	-0.073311	0.000000	0.000009	-0.000001	0.000000	0.000000
46.818990	17.388598	15.921180	0.978995	-1.175019	2.705694	0.000000	-0.154142	0.000000	0.000008	-0.000002	0.000000	0.000000
47.368050	16.052930	17.555614	1.439248	-1.819337	2.599465	0.000000	-0.232238	0.000000	0.000007	-0.000002	0.000000	0.000000
47.917110	14.264990	19.964168	1.797840	-2.593242	2.451427	0.000000	-0.306215	0.000000	0.000006	-0.000002	0.000000	0.000000
48.363070	12.873666	22.105541	1.333054	-2.188288	2.330161	0.000000	-0.237914	0.000000	0.000005	-0.000002	0.000000	0.000000
48.804030	11.878228	23.820050	0.932942	-1.685044	2.239711	0.000000	-0.172719	0.000000	0.000004	-0.000002	0.000000	0.000000
49.244990	11.215600	25.055106	0.575453	-1.105132	2.177549	0.000000	-0.109492	0.000000	0.000004	-0.000002	0.000000	0.000000
49.685950	10.855508	25.754515	0.244254	-0.474937	2.142966	0.000000	-0.047512	0.000000	0.000003	-0.000002	0.000000	0.000000
50.128160	10.781623	25.886171	-0.049462	0.113339	2.135580	0.000000	0.008690	0.000000	0.000002	-0.000002	0.000000	0.000000
50.425482	10.819255	25.822234	-0.077106	0.101705	2.138164	0.000000	0.008690	0.000000	0.000002	-0.000002	0.000000	0.000000
50.758816	10.880990	25.758778	-0.108098	0.088663	2.141062	0.000000	0.008690	0.000000	0.000001	-0.000002	0.000000	0.000000
51.092149	10.963386	25.704017	-0.139091	0.075621	2.143959	0.000000	0.008690	0.000000	0.000001	-0.000002	0.000000	0.000000
51.426732	11.066645	25.658314	-0.080420	-0.145623	2.146845	0.000000	-0.008726	0.000000	0.000000	-0.000002	0.000000	0.000000
51.724055	11.122506	25.748427	-0.080184	-0.220600	2.144251	0.000000	-0.013984	0.000000	-0.000000	-0.000002	0.000000	0.000000
52.165015	11.338460	25.656506	-0.411409	0.428263	2.151674	0.000000	0.047679	0.000000	-0.000001	-0.000002	0.000000	0.000000
52.605975	11.853680	24.998780	-0.761430	1.057640	2.186381	0.000000	0.109885	0.000000	-0.000002	-0.000002	0.000000	0.000000
53.046935	12.691706	23.805173	-1.146238	1.638896	2.248769	0.000000	0.173343	0.000000	-0.000002	-0.000002	0.000000	0.000000
53.487895	13.890824	22.129994	-1.583415	2.145583	2.339547	0.000000	0.238775	0.000000	-0.000003	-0.000002	0.000000	0.000000
53.933855	15.526377	20.024418	-2.097160	2.555986	2.461254	0.000000	0.307326	0.000000	-0.000004	-0.000002	0.000000	0.000000
54.482915	17.632128	17.655074	-1.715332	1.784758	2.609816	0.000000	0.233022	0.000000	-0.000005	-0.000002	0.000000	0.000000
55.031975	19.249168	16.058273	-1.212341	1.140654	2.716383	0.000000	0.154585	0.000000	-0.000006	-0.000001	0.000000	0.000000
55.581035	20.263277	15.120277	-0.623717	0.577797	2.779066	0.000000	0.073406	0.000000	-0.000006	-0.000001	0.000000	0.000000
56.130095	20.602824	14.774274	0.008963	0.056095	2.796753	0.000000	-0.009076	0.000000	-0.000007	-0.000001	0.000000	0.000000
56.428668	20.633954	14.723813	-0.059393	0.074310	2.796226	0.000000	-0.001768	0.000000	-0.000007	-0.000001	0.000000	0.000000
56.762001	20.678953	14.681861	-0.075604	0.051546	2.795637	0.000000	-0.001768	0.000000	-0.000008	-0.000001	0.000000	0.000000
57.095334	20.734760	14.655085	-0.091816	0.028782	2.795048	0.000000	-0.001768	0.000000	-0.000008	-0.000001	0.000000	0.000000
57.429918	20.801644	14.643471	-0.108088	0.005932	2.794457	0.000000	-0.001768	0.000000	-0.000008	-0.000001	0.000000	0.000000
57.727240	20.870218	14.645980	-0.177082	0.023897	2.793932	0.000000	0.005533	0.000000	-0.000009	-0.000001	0.000000	0.000000
58.276300	20.708647	14.900945	0.469609	-0.491004	2.774331	0.000000	-0.076826	0.000000	-0.000009	-0.000001	0.000000	0.000000
58.825360	19.851024	15.737103	1.083129	-1.040877	2.709819	0.000000	-0.157822	0.000000	-0.000010	-0.000001	0.000000	0.000000
59.374420	18.357927	17.214014	1.620142	-1.664890	2.601538	0.000000	-0.236019	0.000000	-0.000010	-0.000000	0.000000	0.000000
59.923480	16.334822	19.436874	2.042717	-2.407490	2.451411	0.000000	-0.310029	0.000000	-0.000010	0.000000	0.000000	0.000000
60.369440	14.751382	21.412547	1.520488	-2.003967	2.328440	0.000000	-0.241750	0.000000	-0.000010	-0.000000	0.000000	0.000000
60.810400	13.612552	22.968268	1.071926	-1.510641	2.236285	0.000000	-0.176622	0.000000	-0.000010	-0.000000	0.000000	0.000000
61.251360	12.846308	24.056829	0.672338	-0.948582	2.172378	0.000000	-0.113506	0.000000	-0.000010	-0.000001	0.000000	0.000000
61.692320	12.417644	24.628702	0.303467	-0.343363	2.135992	0.000000	-0.051682	0.000000	-0.000011	-0.000001	0.000000	0.000000
62.134530	12.307027	24.657323	-0.021458	0.216951	2.126718	0.000000	0.004337	0.000000	-0.000011	-0.000001	0.000000	0.000000
62.431853	12.326973	24.532068	-0.045628	0.204325	2.128008	0.000000	0.004337	0.000000	-0.000011	-0.000001	0.000000	0.000000
62.765186	12.366424	24.400570	-0.072725	0.190170	2.129454	0.000000	0.004337	0.000000	-0.000012	-0.000001	0.000000	0.000000
63.098520	12.423940	24.278508	-0.099822	0.176015	2.130900	0.000000	0.004337	0.000000	-0.000012	-0.000001	0.000000	0.000000
63.433103	12.499838	24.165479	-0.127021	0.161807	2.132352	0.000000	0.004337	0.000000	-0.000013	-0.000001	0.000000	0.000000
63.730426	12.582557	24.073015	-0.120331	0.090140	2.133642	0.000000	-0.000896	0.000000	-0.000013	-0.000001	0.000000	0.000000
64.171386	12.848938	23.728409	-0.486054	0.688376	2.146786	0.000000	0.060568	0.000000	-0.000013	-0.000001	0.000000	0.000000
64.612346	13.446393	22.868055	-0.873983	1.255292	2.187160	0.000000	0.122721	0.000000	-0.000014	-0.000002	0.000000	0.000000
65.053306	14.402218	21.531099	-1.301842	1.765094	2.255223	0.000000	0.186272	0.000000	-0.000015	-0.000002	0.000000	0.000000
65.494266	15.760082	19.778370	-1.789178	2.194584	2.351750	0.000000	0.251945	0.000000	-0.000016	-0.000003	0.000000	0.000000
65.940226	17.605182	17.664818	-2.362947	2.524976	2.479413	0.000000	0.320889	0.000000	-0.000017	-0.000003	0.000000	0.000000
66.489286	19.970520	15.300447	-1.919530	1.806659	2.635239	0.000000	0.245879	0.000000	-0.000019	-0.000002	0.000000	0.000000
67.038346	21.771145	13.650005	-1.340527	1.217027	2.748619	0.000000	0.166508	0.000000	-0.000020	-0.000002	0.000000	0.000000
67.587406	22.879870	12.595933	-0.666837	0.714081	2.817544	0.000000	0.084183	0.000000	-0.000021	-0.000001	0.000000	0.000000
68.136466	23.218382	12.063153	0.053956	0.261997	2.840789	0.000000	0.000365	0.000000	-0.000021	-0.000000	0.000000	0.000000
68.435038	23.226234	11.895904	-0.019580	0.266638	2.843115	0.000000	0.007789	0.000000	-0.000022	-0.000001	0.000000	0.000000
68.768372	23.244073	11.728149	-0.033937	0.236625	2.845711	0.000000	0.007789	0.000000	-0.000022	-0.000001	0.000000	0.000000
69.101705	23.271483	11.580403	-0.048294	0.206612	2.848308	0.000000	0.007789	0.000000	-0.000022	-0.000001	0.000000	0.000000
69.436288	23.308622	11.452225	-0.062705	0.176487	2.850914	0.000000	0.007789	0.000000	-0.000022	-0.000001	0.000000	0.000000
69.733611	23.349716	11.355237	-0.136531	0.179391	2.853230	0.000000	0.015245	0.000000	-0.000022	-0.000001	0.000000	0.000000
70.282671	23.098620	11.385680	0.591144	-0.235163	2.838420	0.000000	-0.069113	0.000000	-0.000022	0.000000	0.000000	0.000000
