#ParticleID	Turn	x[m]	xp	y[m]	yp	z[m]	dE[GeV]# s	beta_x	beta_y	alpha_x	alpha_y	D_x	D_y	D_px	D_py	orbit_x	orbit_px	orbit_y	orbit_py
0.300000	11.825988	24.969510	-0.012537	-0.027677	2.618157	0.000000	-0.000004	0.000000	0.000000	0.000000	0.000000	0.000000
0.601250	11.841217	24.989823	-0.038015	-0.039751	2.618155	0.000000	-0.000004	0.000000	0.000000	0.000000	0.000000	0.000000
0.898573	11.871299	25.017004	-0.034048	-0.113017	2.618154	0.000000	-0.006424	0.000000	0.000000	0.000000	0.000000	0.000000
1.339533	12.053607	24.839196	-0.380955	0.514710	2.631615	0.000000	0.067534	0.000000	0.000000	0.000000	0.000000	0.000000
1.780493	12.548348	24.116036	-0.745266	1.119018	2.677826	0.000000	0.142261	0.000000	0.000001	0.000000	0.000000	0.000000
2.221453	13.378126	22.880425	-1.143626	1.672411	2.757315	0.000000	0.218609	0.000000	0.000001	0.000000	0.000000	0.000000
2.662413	14.580851	21.188584	-1.594236	2.149711	2.870987	0.000000	0.297447	0.000000	0.000001	0.000000	0.000000	0.000000
3.108373	16.232260	19.092676	-2.121978	2.530332	3.021997	0.000000	0.380161	0.000000	0.000001	0.000000	0.000000	0.000000
3.657433	18.349880	16.738740	-1.712002	1.782184	3.205457	0.000000	0.287123	0.000000	0.000001	0.000000	0.000000	0.000000
4.206493	19.947826	15.132251	-1.181099	1.160977	3.336357	0.000000	0.188993	0.000000	0.000001	0.000000	0.000000	0.000000
4.755553	20.913225	14.158780	-0.566769	0.622465	3.412377	0.000000	0.087509	0.000000	0.000002	0.000000	0.000000	0.000000
5.304613	21.177887	13.748991	0.087595	0.128288	3.432168	0.000000	-0.015526	0.000000	0.000002	0.000000	0.000000	0.000000
5.603185	21.162836	13.657591	0.018149	0.141910	3.430210	0.000000	-0.006558	0.000000	0.000002	0.000000	0.000000	0.000000
5.936519	21.155989	13.571284	0.002393	0.117012	3.428024	0.000000	-0.006558	0.000000	0.000002	0.000000	0.000000	0.000000
6.269852	21.159646	13.501575	-0.013363	0.092114	3.425837	0.000000	-0.006558	0.000000	0.000002	0.000000	0.000000	0.000000
6.604435	21.173880	13.448297	-0.029179	0.067123	3.423643	0.000000	-0.006558	0.000000	0.000002	0.000000	0.000000	0.000000
6.901758	21.195409	13.414986	-0.098611	0.079965	3.421693	0.000000	0.002382	0.000000	0.000002	0.000000	0.000000	0.000000
7.450818	20.942409	13.587765	0.556671	-0.396504	3.394799	0.000000	-0.100199	0.000000	0.000002	0.000000	0.000000	0.000000
7.999878	19.987264	14.296110	1.172632	-0.901215	3.311989	0.000000	-0.201003	0.000000	0.000002	0.000000	0.000000	0.000000
8.548938	18.397441	15.590474	1.705765	-1.470118	3.174729	0.000000	-0.298241	0.000000	0.000002	0.000000	0.000000	0.000000
9.097998	16.285236	17.563052	2.118411	-2.143734	2.985456	0.000000	-0.390189	0.000000	0.000002	-0.000000	0.000000	0.000000
9.543958	14.637242	19.320766	1.590112	-1.781024	2.829754	0.000000	-0.308483	0.000000	0.000002	-0.000000	0.000000	0.000000
9.984918	13.438468	20.701610	1.138757	-1.338509	2.710971	0.000000	-0.230775	0.000000	0.000002	0.000000	0.000000	0.000000
10.425878	12.613393	21.663742	0.739428	-0.835092	2.625843	0.000000	-0.155694	0.000000	0.000002	0.000000	0.000000	0.000000
10.866838	12.124324	22.163387	0.373882	-0.293680	2.573401	0.000000	-0.082387	0.000000	0.000002	0.000000	0.000000	0.000000
11.309048	11.948778	22.177294	0.054613	0.206650	2.553026	0.000000	-0.016279	0.000000	0.000002	0.000000	0.000000	0.000000
11.606371	11.923723	22.058566	0.029656	0.192671	2.548186	0.000000	-0.016279	0.000000	0.000002	0.000000	0.000000	0.000000
12.086371	11.914593	21.884435	-0.010635	0.170103	2.540372	0.000000	-0.016279	0.000000	0.000002	0.000000	0.000000	0.000000
12.566371	11.944143	21.731968	-0.050927	0.147535	2.532558	0.000000	-0.016279	0.000000	0.000003	0.000000	0.000000	0.000000
13.046371	12.012372	21.601167	-0.091218	0.124967	2.524743	0.000000	-0.016279	0.000000	0.000003	0.000000	0.000000	0.000000
13.526371	12.119281	21.492031	-0.131509	0.102399	2.516929	0.000000	-0.016279	0.000000	0.000003	0.000000	0.000000	0.000000
14.007621	12.265299	21.404361	-0.171905	0.079772	2.509095	0.000000	-0.016279	0.000000	0.000003	0.000000	0.000000	0.000000
14.304943	12.374942	21.361081	-0.166517	0.013411	2.504254	0.000000	-0.022420	0.000000	0.000003	0.000000	0.000000	0.000000
14.745903	12.680467	21.115435	-0.528973	0.541540	2.509999	0.000000	0.048502	0.000000	0.000003	0.000000	0.000000	0.000000
15.186863	13.315057	20.413149	-0.915597	1.045029	2.547110	0.000000	0.119977	0.000000	0.000003	0.000000	0.000000	0.000000
15.627823	14.307705	19.286177	-1.344051	1.500970	2.616010	0.000000	0.192818	0.000000	0.000003	0.000000	0.000000	0.000000
16.068783	15.703764	17.785794	-1.833912	1.888619	2.717482	0.000000	0.267856	0.000000	0.000004	0.000001	0.000000	0.000000
16.514743	17.590669	15.958765	-2.412317	2.191084	2.854379	0.000000	0.346406	0.000000	0.000004	0.000001	0.000000	0.000000
17.063803	20.013946	13.918620	-1.975059	1.546553	3.020846	0.000000	0.259075	0.000000	0.000004	0.000001	0.000000	0.000000
17.612863	21.877148	12.521967	-1.398292	1.012179	3.138029	0.000000	0.167148	0.000000	0.000004	0.000000	0.000000	0.000000
18.161923	23.048667	11.669325	-0.722758	0.549900	3.203849	0.000000	0.072256	0.000000	0.000005	0.000000	0.000000	0.000000
18.710983	23.445752	11.299961	0.003829	0.126790	3.217139	0.000000	-0.023918	0.000000	0.000005	0.000000	0.000000	0.000000
19.009556	23.483860	11.214701	-0.070205	0.129245	3.212507	0.000000	-0.015512	0.000000	0.000005	0.000000	0.000000	0.000000
19.342889	23.535418	11.138611	-0.084469	0.099026	3.207337	0.000000	-0.015512	0.000000	0.000005	0.000000	0.000000	0.000000
19.676223	23.596485	11.082667	-0.098733	0.068806	3.202166	0.000000	-0.015512	0.000000	0.000005	0.000000	0.000000	0.000000
20.010806	23.667637	11.046636	-0.230313	0.093206	3.196995	0.000000	0.000328	0.000000	0.000005	0.000000	0.000000	0.000000
20.308129	23.808525	10.999284	-0.305747	0.094795	3.197093	0.000000	0.008681	0.000000	0.000005	0.000000	0.000000	0.000000
20.857189	23.733641	11.117637	0.441324	-0.311623	3.175640	0.000000	-0.086711	0.000000	0.000005	-0.000000	0.000000	0.000000
21.406249	22.850717	11.691782	1.157222	-0.740237	3.102156	0.000000	-0.180565	0.000000	0.000005	-0.000000	0.000000	0.000000
21.955309	21.222118	12.762614	1.791379	-1.221576	2.977946	0.000000	-0.271216	0.000000	0.000005	-0.000000	0.000000	0.000000
22.504369	18.962879	14.406406	2.299002	-1.789925	2.805213	0.000000	-0.357056	0.000000	0.000004	-0.000000	0.000000	0.000000
22.950329	17.182505	15.882106	1.707319	-1.505158	2.663274	0.000000	-0.279846	0.000000	0.000004	-0.000000	0.000000	0.000000
23.391289	15.906070	17.058621	1.198335	-1.152764	2.556195	0.000000	-0.206279	0.000000	0.000004	-0.000000	0.000000	0.000000
23.832249	15.052771	17.899947	0.744100	-0.747920	2.481008	0.000000	-0.135060	0.000000	0.000004	-0.000000	0.000000	0.000000
24.273209	14.583623	18.367807	0.323860	-0.309046	2.436857	0.000000	-0.065380	0.000000	0.000004	-0.000000	0.000000	0.000000
24.715418	14.477308	18.440667	-0.046169	0.098600	2.423236	0.000000	-0.002387	0.000000	0.000004	0.000000	0.000000	0.000000
25.012741	14.510881	18.386875	-0.066750	0.082320	2.422526	0.000000	-0.002387	0.000000	0.000004	0.000000	0.000000	0.000000
25.346075	14.563072	18.338079	-0.089823	0.064068	2.421731	0.000000	-0.002387	0.000000	0.000004	0.000000	0.000000	0.000000
25.679408	14.630646	18.301451	-0.112897	0.045816	2.420935	0.000000	-0.002387	0.000000	0.000004	0.000000	0.000000	0.000000
26.013991	14.713643	18.277293	-0.016690	-0.120778	2.420112	0.000000	-0.022021	0.000000	0.000004	-0.000000	0.000000	0.000000
26.311314	14.729578	18.354020	-0.000783	-0.182291	2.413565	0.000000	-0.027939	0.000000	0.000004	-0.000000	0.000000	0.000000
26.752274	14.911763	18.315696	-0.413940	0.268872	2.416355	0.000000	0.040607	0.000000	0.000004	0.000000	0.000000	0.000000
27.193234	15.465250	17.883377	-0.846009	0.707801	2.449445	0.000000	0.109616	0.000000	0.000004	0.000000	0.000000	0.000000
27.634194	16.415327	17.076735	-1.316729	1.114525	2.513211	0.000000	0.179874	0.000000	0.000004	0.000000	0.000000	0.000000
28.075154	17.805399	15.932470	-1.847607	1.470540	2.608379	0.000000	0.252180	0.000000	0.000004	0.000000	0.000000	0.000000
28.521114	19.723130	14.485412	-2.467856	1.760559	2.737637	0.000000	0.327801	0.000000	0.000004	0.000001	0.000000	0.000000
29.070174	22.160576	12.872991	-1.945173	1.193470	2.894955	0.000000	0.244400	0.000000	0.000005	0.000000	0.000000	0.000000
29.619234	23.944748	11.833247	-1.285093	0.711388	3.005221	0.000000	0.156664	0.000000	0.000005	0.000000	0.000000	0.000000
30.168294	24.949620	11.292121	-0.534240	0.279978	3.066481	0.000000	0.066150	0.000000	0.000005	0.000000	0.000000	0.000000
30.717354	25.104212	11.211072	0.254348	-0.131491	3.077646	0.000000	-0.025539	0.000000	0.000005	-0.000000	0.000000	0.000000
31.015927	24.995174	11.280134	0.176441	-0.129110	3.072422	0.000000	-0.017498	0.000000	0.000005	-0.000000	0.000000	0.000000
31.349260	24.882130	11.376222	0.162690	-0.159153	3.066589	0.000000	-0.017498	0.000000	0.000005	-0.000000	0.000000	0.000000
31.682593	24.778254	11.492338	0.148939	-0.189196	3.060757	0.000000	-0.017498	0.000000	0.000005	-0.000000	0.000000	0.000000
32.017177	24.683207	11.629031	0.135136	-0.219352	3.054902	0.000000	-0.017498	0.000000	0.000005	-0.000000	0.000000	0.000000
32.314499	24.606495	11.767435	0.058581	-0.215404	3.049700	0.000000	-0.009530	0.000000	0.000005	-0.000000	0.000000	0.000000
32.863559	24.120627	12.243281	0.821091	-0.656368	3.019585	0.000000	-0.100005	0.000000	0.000005	-0.000000	0.000000	0.000000
33.412619	22.824479	13.226036	1.525602	-1.144084	2.940208	0.000000	-0.188707	0.000000	0.000004	-0.000000	0.000000	0.000000
33.961679	20.809605	14.785700	2.122353	-1.713290	2.812977	0.000000	-0.274062	0.000000	0.000004	-0.000001	0.000000	0.000000
34.510739	18.218326	17.033362	2.569191	-2.404530	2.640149	0.000000	-0.354555	0.000000	0.000004	-0.000001	0.000000	0.000000
34.956699	16.203595	19.043763	1.964736	-2.084676	2.498374	0.000000	-0.281625	0.000000	0.000004	-0.000001	0.000000	0.000000
35.397659	14.701305	20.706068	1.455049	-1.670719	2.389570	0.000000	-0.212331	0.000000	0.000003	-0.000000	0.000000	0.000000
35.838619	13.617617	21.968254	1.011840	-1.180746	2.310761	0.000000	-0.145455	0.000000	0.000003	-0.000000	0.000000	0.000000
36.279579	12.903019	22.772891	0.614858	-0.637050	2.261048	0.000000	-0.080235	0.000000	0.000003	-0.000000	0.000000	0.000000
36.721789	12.524172	23.083672	0.276574	-0.121029	2.239839	0.000000	-0.021422	0.000000	0.000003	-0.000000	0.000000	0.000000
37.019112	12.367307	23.159527	0.251018	-0.134098	2.233469	0.000000	-0.021422	0.000000	0.000003	-0.000000	0.000000	0.000000
37.352445	12.209512	23.253809	0.222367	-0.148749	2.226329	0.000000	-0.021422	0.000000	0.000003	-0.000000	0.000000	0.000000
37.685779	12.070817	23.357859	0.193716	-0.163401	2.219188	0.000000	-0.021422	0.000000	0.000003	-0.000000	0.000000	0.000000
38.020362	11.950811	23.472122	0.164958	-0.178108	2.212021	0.000000	-0.021422	0.000000	0.000003	-0.000000	0.000000	0.000000
38.317684	11.860318	23.581919	0.168486	-0.249005	2.205651	0.000000	-0.026831	0.000000	0.000003	-0.000000	0.000000	0.000000
38.758644	11.862988	23.540337	-0.174563	0.342946	2.207747	0.000000	0.036346	0.000000	0.000002	-0.000000	0.000000	0.000000
39.199604	12.170559	22.981614	-0.525587	0.919293	2.237767	0.000000	0.099938	0.000000	0.000002	-0.000000	0.000000	0.000000
39.640564	12.797085	21.931172	-0.900625	1.453813	2.296051	0.000000	0.164668	0.000000	0.000002	-0.000000	0.000000	0.000000
40.081524	13.771189	20.436805	-1.316809	1.922185	2.383265	0.000000	0.231273	0.000000	0.000002	0.000000	0.000000	0.000000
40.527484	15.154942	18.543939	-1.796978	2.304380	2.501874	0.000000	0.300917	0.000000	0.000002	0.000000	0.000000	0.000000
41.076544	16.920949	16.416906	-1.400400	1.592440	2.646566	0.000000	0.225360	0.000000	0.000002	-0.000000	0.000000	0.000000
41.625604	18.194236	15.005169	-0.904904	0.993926	2.748612	0.000000	0.145805	0.000000	0.000002	-0.000000	0.000000	0.000000
42.174664	18.884867	14.208172	-0.345491	0.466208	2.806202	0.000000	0.063664	0.000000	0.000002	-0.000000	0.000000	0.000000
42.723724	18.944057	13.969147	0.238327	-0.028304	2.818316	0.000000	-0.019606	0.000000	0.000002	-0.000000	0.000000	0.000000
43.022297	18.836171	13.970636	0.172507	-0.013181	2.814660	0.000000	-0.012242	0.000000	0.000002	-0.000000	0.000000	0.000000
43.502297	18.683160	13.999784	0.146266	-0.047544	2.808784	0.000000	-0.012242	0.000000	0.000002	-0.000000	0.000000	0.000000
43.982297	18.555340	14.061921	0.120025	-0.081908	2.802908	0.000000	-0.012242	0.000000	0.000002	-0.000000	0.000000	0.000000
44.462297	18.452712	14.157047	0.093784	-0.116272	2.797032	0.000000	-0.012242	0.000000	0.000002	-0.000000	0.000000	0.000000
44.942297	18.375275	14.285163	0.067542	-0.150636	2.791156	0.000000	-0.012242	0.000000	0.000002	-0.000000	0.000000	0.000000
45.423547	18.323154	14.446551	-0.049550	-0.113512	2.785281	0.000000	0.001558	0.000000	0.000002	-0.000000	0.000000	0.000000
45.720870	18.357455	14.520248	-0.113781	-0.096420	2.785745	0.000000	0.008836	0.000000	0.000002	-0.000000	0.000000	0.000000
46.269930	18.173291	14.907021	0.447213	-0.612166	2.768025	0.000000	-0.073288	0.000000	0.000001	-0.000000	0.000000	0.000000
46.818990	17.386868	15.880622	0.976617	-1.171516	2.705505	0.000000	-0.154112	0.000000	0.000001	-0.000000	0.000000	0.000000
47.368050	16.053735	17.510399	1.437038	-1.814310	2.599294	0.000000	-0.232202	0.000000	0.000001	-0.000000	0.000000	0.000000
47.917110	14.268058	19.912438	1.795954	-2.586333	2.451276	0.000000	-0.306174	0.000000	0.000001	-0.000000	0.000000	0.000000
48.363070	12.878358	22.048137	1.331286	-2.182527	2.330026	0.000000	-0.237877	0.000000	0.000001	-0.000000	0.000000	0.000000
48.804030	11.884459	23.758167	0.931208	-1.680688	2.239592	0.000000	-0.172685	0.000000	0.000001	-0.000000	0.000000	0.000000
49.244990	11.223373	24.990076	0.573675	-1.102378	2.177443	0.000000	-0.109461	0.000000	0.000000	-0.000000	0.000000	0.000000
49.685950	10.864898	25.687812	0.242352	-0.473912	2.142873	0.000000	-0.047483	0.000000	0.000000	-0.000000	0.000000	0.000000
50.128160	10.792783	25.819347	-0.051549	0.112751	2.135499	0.000000	0.008717	0.000000	0.000000	-0.000000	0.000000	0.000000
50.425482	10.831649	25.755767	-0.079170	0.101089	2.138091	0.000000	0.008717	0.000000	0.000000	-0.000000	0.000000	0.000000
50.758816	10.894751	25.692733	-0.110137	0.088015	2.140996	0.000000	0.008717	0.000000	-0.000000	-0.000000	0.000000	0.000000
51.092149	10.978499	25.638414	-0.141104	0.074941	2.143902	0.000000	0.008717	0.000000	-0.000000	-0.000000	0.000000	0.000000
51.426732	11.083096	25.593176	-0.082274	-0.145807	2.146797	0.000000	-0.008699	0.000000	-0.000000	-0.000000	0.000000	0.000000
51.724055	11.140049	25.683407	-0.081963	-0.220655	2.144210	0.000000	-0.013958	0.000000	-0.000000	-0.000000	0.000000	0.000000
52.165015	11.357761	25.592295	-0.413633	0.426493	2.151644	0.000000	0.047705	0.000000	-0.000000	-0.000000	0.000000	0.000000
52.605975	11.875176	24.936858	-0.764200	1.054236	2.186362	0.000000	0.109911	0.000000	-0.000001	-0.000000	0.000000	0.000000
53.046935	12.715932	23.746920	-1.149682	1.634012	2.248760	0.000000	0.173368	0.000000	-0.000001	-0.000000	0.000000	0.000000
53.487895	13.918440	22.076622	-1.587689	2.139442	2.339549	0.000000	0.238800	0.000000	-0.000001	-0.000000	0.000000	0.000000
53.933855	15.558251	19.976985	-2.102468	2.548864	2.461267	0.000000	0.307351	0.000000	-0.000001	-0.000000	0.000000	0.000000
54.482915	17.669417	17.614430	-1.719825	1.779444	2.609841	0.000000	0.233046	0.000000	-0.000001	-0.000000	0.000000	0.000000
55.031975	19.290795	16.022649	-1.215701	1.136771	2.716421	0.000000	0.154608	0.000000	-0.000002	-0.000000	0.000000	0.000000
55.581035	20.307859	15.088263	-0.625707	0.575067	2.779116	0.000000	0.073428	0.000000	-0.000002	-0.000000	0.000000	0.000000
56.130095	20.648769	14.744718	0.008484	0.054324	2.796814	0.000000	-0.009055	0.000000	-0.000002	-0.000000	0.000000	0.000000
56.428668	20.680246	14.695371	-0.059957	0.072426	2.796293	0.000000	-0.001748	0.000000	-0.000002	-0.000000	0.000000	0.000000
56.762001	20.725610	14.654688	-0.076134	0.049624	2.795710	0.000000	-0.001748	0.000000	-0.000002	-0.000000	0.000000	0.000000
57.095334	20.781758	14.629207	-0.092310	0.026822	2.795128	0.000000	-0.001748	0.000000	-0.000002	-0.000000	0.000000	0.000000
57.429918	20.848962	14.618916	-0.108547	0.003934	2.794543	0.000000	-0.001748	0.000000	-0.000002	-0.000000	0.000000	0.000000
57.727240	20.917799	14.622624	-0.177631	0.021803	2.794023	0.000000	0.005553	0.000000	-0.000002	-0.000000	0.000000	0.000000
58.276300	20.755952	14.879530	0.470656	-0.492468	2.774433	0.000000	-0.076809	0.000000	-0.000002	-0.000000	0.000000	0.000000
58.825360	19.896331	15.717000	1.085699	-1.041815	2.709928	0.000000	-0.157809	0.000000	-0.000002	-0.000000	0.000000	0.000000
59.374420	18.399654	17.194685	1.624054	-1.665369	2.601654	0.000000	-0.236009	0.000000	-0.000002	0.000000	0.000000	0.000000
59.923480	16.371640	19.417835	2.047694	-2.407544	2.451531	0.000000	-0.310023	0.000000	-0.000002	0.000000	0.000000	0.000000
60.369440	14.784260	21.393846	1.524377	-2.004669	2.328563	0.000000	-0.241741	0.000000	-0.000002	0.000000	0.000000	0.000000
60.810400	13.642408	22.950460	1.074916	-1.511955	2.236412	0.000000	-0.176610	0.000000	-0.000002	-0.000000	0.000000	0.000000
61.251360	12.873873	24.040428	0.674564	-0.950448	2.172512	0.000000	-0.113490	0.000000	-0.000002	-0.000000	0.000000	0.000000
61.692320	12.443544	24.614159	0.305031	-0.345696	2.136133	0.000000	-0.051663	0.000000	-0.000002	-0.000000	0.000000	0.000000
62.134530	12.331810	24.645012	-0.020426	0.214292	2.126868	0.000000	0.004360	0.000000	-0.000002	-0.000000	0.000000	0.000000
62.431853	12.351128	24.521336	-0.044546	0.201674	2.128165	0.000000	0.004360	0.000000	-0.000003	-0.000000	0.000000	0.000000
62.765186	12.389839	24.391602	-0.071588	0.187527	2.129618	0.000000	0.004360	0.000000	-0.000003	-0.000000	0.000000	0.000000
63.098520	12.446578	24.271299	-0.098629	0.173381	2.131072	0.000000	0.004360	0.000000	-0.000003	-0.000000	0.000000	0.000000
63.433103	12.521659	24.160030	-0.125772	0.159181	2.132530	0.000000	0.004360	0.000000	-0.000003	-0.000000	0.000000	0.000000
63.730426	12.603620	24.069125	-0.118984	0.087537	2.133827	0.000000	-0.000873	0.000000	-0.000003	-0.000000	0.000000	0.000000
64.171386	12.869013	23.726839	-0.485152	0.685738	2.146982	0.000000	0.060596	0.000000	-0.000003	-0.000000	0.000000	0.000000
64.612346	13.465854	22.868783	-0.873486	1.252739	2.187369	0.000000	0.122754	0.000000	-0.000003	-0.000000	0.000000	0.000000
65.053306	14.421411	21.533998	-1.301727	1.762741	2.255447	0.000000	0.186311	0.000000	-0.000003	-0.000000	0.000000	0.000000
65.494266	15.779340	19.783214	-1.789440	2.192540	2.351992	0.000000	0.251990	0.000000	-0.000003	-0.000001	0.000000	0.000000
65.940226	17.624848	17.671311	-2.363600	2.523337	2.479675	0.000000	0.320940	0.000000	-0.000004	-0.000001	0.000000	0.000000
66.489286	19.990475	15.308688	-1.919400	1.805095	2.635526	0.000000	0.245921	0.000000	-0.000004	-0.000000	0.000000	0.000000
67.038346	21.790528	13.659972	-1.339622	1.215427	2.748926	0.000000	0.166540	0.000000	-0.000004	-0.000000	0.000000	0.000000
67.587406	22.897862	12.607729	-0.665221	0.712330	2.817865	0.000000	0.084206	0.000000	-0.000004	-0.000000	0.000000	0.000000
68.136466	23.234260	12.077010	0.056168	0.259972	2.841120	0.000000	0.000377	0.000000	-0.000004	-0.000000	0.000000	0.000000
68.435038	23.240808	11.910934	-0.017391	0.264704	2.843449	0.000000	0.007801	0.000000	-0.000004	-0.000000	0.000000	0.000000
68.768372	23.257185	11.744446	-0.031738	0.234758	2.846049	0.000000	0.007801	0.000000	-0.000005	-0.000000	0.000000	0.000000
69.101705	23.283126	11.597923	-0.046085	0.204812	2.848649	0.000000	0.007801	0.000000	-0.000005	-0.000000	0.000000	0.000000
69.436288	23.318783	11.470927	-0.060486	0.174753	2.851259	0.000000	0.007801	0.000000	-0.000005	-0.000000	0.000000	0.000000
69.733611	23.358556	11.374953	-0.134317	0.177763	2.853578	0.000000	0.015257	0.000000	-0.000005	-0.000000	0.000000	0.000000
70.282671	23.104889	11.407492	0.593585	-0.237376	2.838772	0.000000	-0.069112	0.000000	-0.000005	0.000000	0.000000	0.000000
