#ParticleID	Turn	x[m]	xp	y[m]	yp	z[m]	dE[GeV]# s	beta_x	beta_y	alpha_x	alpha_y	D_x	D_y	D_px	D_py	orbit_x	orbit_px	orbit_y	orbit_py
0.300000	11.813680	25.019527	-0.010988	-0.027281	2.618050	0.000000	0.000036	0.000000	-0.000000	0.000001	0.000000	0.000000
0.601250	11.827983	25.039594	-0.036491	-0.039330	2.618061	0.000000	0.000036	0.000000	-0.000000	0.000001	0.000000	0.000000
0.898573	11.857166	25.066518	-0.032584	-0.112693	2.618071	0.000000	-0.006384	0.000000	0.000000	0.000001	0.000000	0.000000
1.339533	12.038030	24.887848	-0.379131	0.516335	2.631549	0.000000	0.067572	0.000000	0.000001	0.000001	0.000000	0.000000
1.780493	12.530974	24.162705	-0.742999	1.121870	2.677777	0.000000	0.142298	0.000000	0.000001	0.000001	0.000000	0.000000
2.221453	13.358521	22.924083	-1.140813	1.676361	2.757281	0.000000	0.218645	0.000000	0.000002	0.000001	0.000000	0.000000
2.662413	14.558477	21.228339	-1.590747	2.154579	2.870968	0.000000	0.297482	0.000000	0.000002	0.000001	0.000000	0.000000
3.108373	16.206411	19.127758	-2.117647	2.535898	3.021993	0.000000	0.380196	0.000000	0.000003	0.000001	0.000000	0.000000
3.657433	18.319612	16.768494	-1.708329	1.786380	3.205472	0.000000	0.287158	0.000000	0.000004	0.000001	0.000000	0.000000
4.206493	19.914007	15.158009	-1.178344	1.164102	3.336391	0.000000	0.189026	0.000000	0.000004	0.000001	0.000000	0.000000
4.755553	20.876978	14.181591	-0.565126	0.624740	3.412428	0.000000	0.087542	0.000000	0.000005	0.000001	0.000000	0.000000
5.304613	21.140503	13.769692	0.088010	0.129877	3.432236	0.000000	-0.015495	0.000000	0.000005	0.000001	0.000000	0.000000
5.603185	21.125152	13.677305	0.018638	0.143573	3.430287	0.000000	-0.006528	0.000000	0.000006	0.000001	0.000000	0.000000
5.936519	21.117988	13.589881	0.002854	0.118700	3.428110	0.000000	-0.006528	0.000000	0.000006	0.000001	0.000000	0.000000
6.269852	21.121347	13.519039	-0.012931	0.093826	3.425934	0.000000	-0.006528	0.000000	0.000006	0.000001	0.000000	0.000000
6.604435	21.135301	13.464608	-0.028775	0.068859	3.423750	0.000000	-0.006528	0.000000	0.000007	0.000001	0.000000	0.000000
6.901758	21.156598	13.430257	-0.098129	0.081762	3.421809	0.000000	0.002412	0.000000	0.000007	0.000001	0.000000	0.000000
7.450818	20.903785	13.601293	0.555850	-0.395106	3.394930	0.000000	-0.100173	0.000000	0.000007	0.000001	0.000000	0.000000
7.999878	19.950234	14.308275	1.170567	-0.900117	3.312133	0.000000	-0.200981	0.000000	0.000008	0.000000	0.000000	0.000000
8.548938	18.363299	15.601560	1.702600	-1.469241	3.174884	0.000000	-0.298224	0.000000	0.000008	0.000000	0.000000	0.000000
9.097998	16.255073	17.573267	2.114371	-2.143015	2.985618	0.000000	-0.390177	0.000000	0.000008	-0.000000	0.000000	0.000000
9.543958	14.610275	19.330155	1.586960	-1.779898	2.829922	0.000000	-0.308467	0.000000	0.000008	0.000000	0.000000	0.000000
9.984918	13.413947	20.709846	1.136340	-1.337030	2.711148	0.000000	-0.230754	0.000000	0.000008	0.000000	0.000000	0.000000
10.425878	12.590721	21.670543	0.737637	-0.833329	2.626030	0.000000	-0.155669	0.000000	0.000008	0.000000	0.000000	0.000000
10.866838	12.102987	22.168536	0.372634	-0.291711	2.573600	0.000000	-0.082357	0.000000	0.000008	0.000001	0.000000	0.000000
11.309048	11.928325	22.180644	0.053801	0.208729	2.553239	0.000000	-0.016244	0.000000	0.000009	0.000001	0.000000	0.000000
11.606371	11.903765	22.060683	0.028803	0.194740	2.548410	0.000000	-0.016244	0.000000	0.000009	0.000001	0.000000	0.000000
12.086371	11.895486	21.884573	-0.011554	0.172157	2.540612	0.000000	-0.016244	0.000000	0.000009	0.000001	0.000000	0.000000
12.566371	11.925950	21.730142	-0.051911	0.149574	2.532815	0.000000	-0.016244	0.000000	0.000010	0.000001	0.000000	0.000000
13.046371	11.995155	21.597391	-0.092268	0.126990	2.525017	0.000000	-0.016244	0.000000	0.000010	0.000001	0.000000	0.000000
13.526371	12.103104	21.486320	-0.132625	0.104407	2.517220	0.000000	-0.016244	0.000000	0.000011	0.000001	0.000000	0.000000
14.007621	12.250227	21.396725	-0.173087	0.081765	2.509402	0.000000	-0.016244	0.000000	0.000011	0.000001	0.000000	0.000000
14.304943	12.360585	21.352263	-0.167776	0.015420	2.504572	0.000000	-0.022385	0.000000	0.000011	0.000001	0.000000	0.000000
14.745903	12.667090	21.104963	-0.529946	0.543267	2.510334	0.000000	0.048546	0.000000	0.000012	0.000001	0.000000	0.000000
15.186863	13.302429	20.401307	-0.916328	1.046396	2.547466	0.000000	0.120030	0.000000	0.000012	0.000001	0.000000	0.000000
15.627823	14.295628	19.273312	-1.344574	1.501914	2.616390	0.000000	0.192880	0.000000	0.000013	0.000002	0.000000	0.000000
16.068783	15.692065	17.772299	-1.834250	1.889097	2.717891	0.000000	0.267928	0.000000	0.000014	0.000002	0.000000	0.000000
16.514743	17.579195	15.945062	-2.412485	2.191072	2.854822	0.000000	0.346490	0.000000	0.000015	0.000003	0.000000	0.000000
17.063803	20.002948	13.904780	-1.975750	1.546815	3.021330	0.000000	0.259143	0.000000	0.000016	0.000002	0.000000	0.000000
17.612863	21.867177	12.507680	-1.399458	1.012735	3.138545	0.000000	0.167200	0.000000	0.000017	0.000001	0.000000	0.000000
18.161923	23.040200	11.654249	-0.724315	0.550789	3.204389	0.000000	0.072291	0.000000	0.000018	0.000001	0.000000	0.000000
18.710983	23.439161	11.283699	0.001990	0.128075	3.217693	0.000000	-0.023901	0.000000	0.000018	0.000000	0.000000	0.000000
19.009556	23.478355	11.197713	-0.072026	0.130436	3.213066	0.000000	-0.015495	0.000000	0.000018	0.000000	0.000000	0.000000
19.342889	23.531129	11.120847	-0.086297	0.100161	3.207901	0.000000	-0.015495	0.000000	0.000018	0.000000	0.000000	0.000000
19.676223	23.593417	11.064165	-0.100568	0.069887	3.202736	0.000000	-0.015495	0.000000	0.000018	0.000000	0.000000	0.000000
20.010806	23.665800	11.027430	-0.232146	0.094136	3.197572	0.000000	0.000348	0.000000	0.000019	0.000000	0.000000	0.000000
20.308129	23.807781	10.979540	-0.307582	0.095618	3.197675	0.000000	0.008702	0.000000	0.000019	0.000001	0.000000	0.000000
20.857189	23.734917	11.096681	0.439503	-0.310226	3.176228	0.000000	-0.086709	0.000000	0.000019	-0.000000	0.000000	0.000000
21.406249	22.853924	11.668934	1.155545	-0.738167	3.102741	0.000000	-0.180582	0.000000	0.000019	-0.000001	0.000000	0.000000
21.955309	21.227032	12.737059	1.789964	-1.218685	2.978517	0.000000	-0.271251	0.000000	0.000018	-0.000001	0.000000	0.000000
22.504369	18.969156	14.377135	2.297949	-1.786008	2.805759	0.000000	-0.357110	0.000000	0.000017	-0.000002	0.000000	0.000000
22.950329	17.189729	15.849631	1.706240	-1.501919	2.663800	0.000000	-0.279886	0.000000	0.000017	-0.000001	0.000000	0.000000
23.391289	15.914274	17.023643	1.197181	-1.150349	2.556707	0.000000	-0.206305	0.000000	0.000016	-0.000001	0.000000	0.000000
23.832249	15.062045	17.863245	0.742818	-0.746438	2.481512	0.000000	-0.135074	0.000000	0.000016	-0.000001	0.000000	0.000000
24.273209	14.594104	18.330237	0.322393	-0.308566	2.437358	0.000000	-0.065381	0.000000	0.000015	-0.000000	0.000000	0.000000
24.715418	14.489193	18.403125	-0.047864	0.098154	2.423739	0.000000	-0.002375	0.000000	0.000015	0.000000	0.000000	0.000000
25.012741	14.523770	18.349607	-0.068431	0.081842	2.423033	0.000000	-0.002375	0.000000	0.000015	0.000000	0.000000	0.000000
25.346075	14.577077	18.301142	-0.091489	0.063555	2.422241	0.000000	-0.002375	0.000000	0.000016	0.000000	0.000000	0.000000
25.679408	14.645756	18.264867	-0.114548	0.045268	2.421449	0.000000	-0.002375	0.000000	0.000016	0.000000	0.000000	0.000000
26.013991	14.729853	18.241087	-0.018194	-0.121069	2.420630	0.000000	-0.022013	0.000000	0.000016	0.000000	0.000000	0.000000
26.311314	14.746675	18.317998	-0.002228	-0.182522	2.414085	0.000000	-0.027932	0.000000	0.000016	-0.000000	0.000000	0.000000
26.752274	14.930325	18.280307	-0.415828	0.267670	2.416882	0.000000	0.040628	0.000000	0.000016	0.000000	0.000000	0.000000
27.193234	15.485703	17.849458	-0.848426	0.705682	2.449983	0.000000	0.109651	0.000000	0.000016	0.000001	0.000000	0.000000
27.634194	16.438184	17.045054	-1.319785	1.111587	2.513767	0.000000	0.179922	0.000000	0.000016	0.000001	0.000000	0.000000
28.075154	17.831285	15.903694	-1.851443	1.466916	2.608960	0.000000	0.252243	0.000000	0.000017	0.000002	0.000000	0.000000
28.521114	19.752853	14.460116	-2.472654	1.756413	2.738249	0.000000	0.327880	0.000000	0.000018	0.000002	0.000000	0.000000
29.070174	22.195180	12.851695	-1.949209	1.190286	2.895604	0.000000	0.244459	0.000000	0.000019	0.000002	0.000000	0.000000
29.619234	23.983232	11.815024	-1.288082	0.708941	3.005896	0.000000	0.156701	0.000000	0.000020	0.000001	0.000000	0.000000
30.168294	24.990711	11.276265	-0.535970	0.278091	3.067169	0.000000	0.066164	0.000000	0.000020	0.000000	0.000000	0.000000
30.717354	25.146452	11.197041	0.253999	-0.132950	3.078336	0.000000	-0.025546	0.000000	0.000020	-0.000000	0.000000	0.000000
31.015927	25.037676	11.267011	0.176013	-0.130651	3.073110	0.000000	-0.017504	0.000000	0.000020	-0.000000	0.000000	0.000000
31.349260	24.924910	11.364142	0.162287	-0.160741	3.067275	0.000000	-0.017504	0.000000	0.000020	-0.000000	0.000000	0.000000
31.682593	24.821293	11.481332	0.148561	-0.190831	3.061441	0.000000	-0.017504	0.000000	0.000020	-0.000000	0.000000	0.000000
32.017177	24.726491	11.619135	0.134784	-0.221033	3.055584	0.000000	-0.017504	0.000000	0.000019	-0.000000	0.000000	0.000000
32.314499	24.649982	11.758551	0.058146	-0.217155	3.050380	0.000000	-0.009536	0.000000	0.000019	-0.000000	0.000000	0.000000
32.863559	24.163795	12.236225	0.822101	-0.657964	3.020256	0.000000	-0.100033	0.000000	0.000019	-0.000001	0.000000	0.000000
33.412619	22.865771	13.220700	1.527988	-1.145639	2.940858	0.000000	-0.188756	0.000000	0.000018	-0.000002	0.000000	0.000000
33.961679	20.847595	14.782101	2.125945	-1.714916	2.813595	0.000000	-0.274132	0.000000	0.000017	-0.000002	0.000000	0.000000
34.510739	18.251822	17.031641	2.573735	-2.406342	2.640724	0.000000	-0.354645	0.000000	0.000016	-0.000003	0.000000	0.000000
34.956699	16.233497	19.043775	1.968277	-2.086735	2.498912	0.000000	-0.281700	0.000000	0.000015	-0.000002	0.000000	0.000000
35.397659	14.728461	20.707969	1.457758	-1.672928	2.390079	0.000000	-0.212392	0.000000	0.000014	-0.000002	0.000000	0.000000
35.838619	13.642704	21.972132	1.013840	-1.183004	2.311246	0.000000	-0.145503	0.000000	0.000013	-0.000002	0.000000	0.000000
36.279579	12.926619	22.778745	0.616241	-0.639255	2.261515	0.000000	-0.080272	0.000000	0.000013	-0.000001	0.000000	0.000000
36.721789	12.546798	23.091416	0.277456	-0.123094	2.240293	0.000000	-0.021447	0.000000	0.000012	-0.000001	0.000000	0.000000
37.019112	12.389398	23.168499	0.251935	-0.136165	2.233917	0.000000	-0.021447	0.000000	0.000012	-0.000001	0.000000	0.000000
37.352445	12.230979	23.264161	0.223323	-0.150819	2.226768	0.000000	-0.021447	0.000000	0.000012	-0.000001	0.000000	0.000000
37.685779	12.091635	23.369591	0.194710	-0.165473	2.219619	0.000000	-0.021447	0.000000	0.000011	-0.000001	0.000000	0.000000
38.020362	11.970950	23.485242	0.165990	-0.180182	2.212443	0.000000	-0.021447	0.000000	0.000011	-0.000001	0.000000	0.000000
38.317684	11.879833	23.596273	0.169599	-0.251113	2.206067	0.000000	-0.026857	0.000000	0.000011	-0.000001	0.000000	0.000000
38.758644	11.881715	23.556375	-0.173883	0.341247	2.208154	0.000000	0.036331	0.000000	0.000011	-0.000001	0.000000	0.000000
39.199604	12.188865	22.998941	-0.525309	0.918081	2.238170	0.000000	0.099933	0.000000	0.000010	-0.000000	0.000000	0.000000
39.640564	12.815318	21.949331	-0.900735	1.453143	2.296455	0.000000	0.164674	0.000000	0.000010	-0.000000	0.000000	0.000000
40.081524	13.789692	20.455304	-1.317313	1.922088	2.383674	0.000000	0.231289	0.000000	0.000010	0.000000	0.000000	0.000000
40.527484	15.174081	18.562265	-1.797903	2.304863	2.502292	0.000000	0.300944	0.000000	0.000010	0.000000	0.000000	0.000000
41.076544	16.940714	16.434956	-1.400608	1.592462	2.646995	0.000000	0.225373	0.000000	0.000011	0.000000	0.000000	0.000000
41.625604	18.213827	15.023445	-0.904381	0.993490	2.749044	0.000000	0.145805	0.000000	0.000010	-0.000000	0.000000	0.000000
42.174664	18.903496	14.227192	-0.344273	0.465281	2.806631	0.000000	0.063650	0.000000	0.000010	-0.000001	0.000000	0.000000
42.723724	18.961004	13.989483	0.240153	-0.029787	2.818733	0.000000	-0.019634	0.000000	0.000010	-0.000001	0.000000	0.000000
43.022297	18.852051	13.991817	0.174297	-0.014581	2.815070	0.000000	-0.012270	0.000000	0.000010	-0.000001	0.000000	0.000000
43.502297	18.697319	14.022286	0.148062	-0.048894	2.809180	0.000000	-0.012270	0.000000	0.000009	-0.000001	0.000000	0.000000
43.982297	18.567772	14.085695	0.121827	-0.083207	2.803291	0.000000	-0.012270	0.000000	0.000009	-0.000001	0.000000	0.000000
44.462297	18.463411	14.182044	0.095592	-0.117520	2.797402	0.000000	-0.012270	0.000000	0.000008	-0.000001	0.000000	0.000000
44.942297	18.384235	14.311334	0.069357	-0.151834	2.791513	0.000000	-0.012270	0.000000	0.000008	-0.000001	0.000000	0.000000
45.423547	18.330364	14.473851	-0.047765	-0.114524	2.785626	0.000000	0.001532	0.000000	0.000007	-0.000001	0.000000	0.000000
45.720870	18.363601	14.548139	-0.112000	-0.097326	2.786082	0.000000	0.008811	0.000000	0.000007	-0.000001	0.000000	0.000000
46.269930	18.177384	14.936379	0.449149	-0.613947	2.768345	0.000000	-0.073324	0.000000	0.000007	-0.000001	0.000000	0.000000
46.818990	17.388811	15.912472	0.978572	-1.174299	2.705803	0.000000	-0.154158	0.000000	0.000006	-0.000001	0.000000	0.000000
47.368050	16.053584	17.545942	1.438874	-1.818293	2.599565	0.000000	-0.232258	0.000000	0.000005	-0.000001	0.000000	0.000000
47.917110	14.266016	19.953139	1.797540	-2.591800	2.451515	0.000000	-0.306238	0.000000	0.000004	-0.000002	0.000000	0.000000
48.363070	12.874954	22.093332	1.332764	-2.187094	2.330239	0.000000	-0.237934	0.000000	0.000004	-0.000001	0.000000	0.000000
48.804030	11.879774	23.806917	0.932648	-1.684151	2.239780	0.000000	-0.172738	0.000000	0.000003	-0.000001	0.000000	0.000000
49.244990	11.217411	25.041333	0.575141	-1.104580	2.177610	0.000000	-0.109509	0.000000	0.000003	-0.000001	0.000000	0.000000
49.685950	10.857606	25.740415	0.243912	-0.474752	2.143021	0.000000	-0.047527	0.000000	0.000002	-0.000001	0.000000	0.000000
50.128160	10.784045	25.872073	-0.049845	0.113183	2.135628	0.000000	0.008676	0.000000	0.000001	-0.000001	0.000000	0.000000
50.425482	10.821903	25.808229	-0.077485	0.101544	2.138208	0.000000	0.008676	0.000000	0.000001	-0.000001	0.000000	0.000000
50.758816	10.883888	25.744883	-0.108471	0.088495	2.141100	0.000000	0.008676	0.000000	0.000001	-0.000001	0.000000	0.000000
51.092149	10.966531	25.690236	-0.139458	0.075446	2.143993	0.000000	0.008676	0.000000	0.000000	-0.000001	0.000000	0.000000
51.426732	11.070034	25.644652	-0.080753	-0.145694	2.146874	0.000000	-0.008740	0.000000	-0.000000	-0.000001	0.000000	0.000000
51.724055	11.126091	25.734809	-0.080502	-0.220644	2.144276	0.000000	-0.013999	0.000000	-0.000001	-0.000001	0.000000	0.000000
52.165015	11.342363	25.643085	-0.411817	0.427861	2.151692	0.000000	0.047665	0.000000	-0.000001	-0.000001	0.000000	0.000000
52.605975	11.857989	24.985865	-0.761946	1.056898	2.186393	0.000000	0.109872	0.000000	-0.000002	-0.000001	0.000000	0.000000
53.046935	12.696526	23.793052	-1.146886	1.637847	2.248775	0.000000	0.173330	0.000000	-0.000002	-0.000001	0.000000	0.000000
53.487895	13.896284	22.118917	-1.584224	2.144275	2.339547	0.000000	0.238762	0.000000	-0.000003	-0.000001	0.000000	0.000000
53.933855	15.532644	20.014601	-2.098169	2.554478	2.461248	0.000000	0.307313	0.000000	-0.000003	-0.000001	0.000000	0.000000
54.482915	17.639419	17.646698	-1.716176	1.783628	2.609802	0.000000	0.233009	0.000000	-0.000004	-0.000001	0.000000	0.000000
55.031975	19.257269	16.050968	-1.212962	1.139822	2.716362	0.000000	0.154572	0.000000	-0.000005	-0.000001	0.000000	0.000000
55.581035	20.271915	15.113751	-0.624070	0.577203	2.779039	0.000000	0.073394	0.000000	-0.000006	-0.000001	0.000000	0.000000
56.130095	20.611690	14.768291	0.008903	0.055696	2.796720	0.000000	-0.009086	0.000000	-0.000006	-0.000001	0.000000	0.000000
56.428668	20.642868	14.718079	-0.059469	0.073888	2.796189	0.000000	-0.001779	0.000000	-0.000006	-0.000001	0.000000	0.000000
56.762001	20.687916	14.676411	-0.075674	0.051117	2.795596	0.000000	-0.001779	0.000000	-0.000007	-0.000001	0.000000	0.000000
57.095334	20.743766	14.649924	-0.091879	0.028345	2.795004	0.000000	-0.001779	0.000000	-0.000007	-0.000001	0.000000	0.000000
57.429918	20.810691	14.638604	-0.108144	0.005488	2.794409	0.000000	-0.001779	0.000000	-0.000007	-0.000001	0.000000	0.000000
57.727240	20.879296	14.641379	-0.177155	0.023434	2.793881	0.000000	0.005522	0.000000	-0.000007	-0.000001	0.000000	0.000000
58.276300	20.717637	14.896782	0.469840	-0.491344	2.774274	0.000000	-0.076835	0.000000	-0.000008	-0.000001	0.000000	0.000000
58.825360	19.859600	15.733259	1.083647	-1.041119	2.709757	0.000000	-0.157829	0.000000	-0.000008	-0.000000	0.000000	0.000000
59.374420	18.365793	17.210390	1.620912	-1.665052	2.601473	0.000000	-0.236024	0.000000	-0.000008	-0.000000	0.000000	0.000000
59.923480	16.341729	19.433387	2.043683	-2.407581	2.451343	0.000000	-0.310032	0.000000	-0.000008	0.000000	0.000000	0.000000
60.369440	14.757523	21.409198	1.521247	-2.004184	2.328370	0.000000	-0.241755	0.000000	-0.000008	-0.000000	0.000000	0.000000
60.810400	13.618101	22.965163	1.072515	-1.510973	2.236213	0.000000	-0.176629	0.000000	-0.000008	-0.000000	0.000000	0.000000
61.251360	12.851403	24.054063	0.672783	-0.949014	2.172303	0.000000	-0.113515	0.000000	-0.000008	-0.000000	0.000000	0.000000
61.692320	12.422401	24.626353	0.303789	-0.343876	2.135913	0.000000	-0.051693	0.000000	-0.000009	-0.000001	0.000000	0.000000
62.134530	12.311548	24.655454	-0.021234	0.216387	2.126634	0.000000	0.004325	0.000000	-0.000009	-0.000001	0.000000	0.000000
62.431853	12.331358	24.530534	-0.045394	0.203763	2.127920	0.000000	0.004325	0.000000	-0.000009	-0.000001	0.000000	0.000000
62.765186	12.370650	24.399409	-0.072481	0.189611	2.129362	0.000000	0.004325	0.000000	-0.000010	-0.000001	0.000000	0.000000
63.098520	12.428000	24.277720	-0.099568	0.175458	2.130803	0.000000	0.004325	0.000000	-0.000010	-0.000001	0.000000	0.000000
63.433103	12.503725	24.165062	-0.126757	0.161252	2.132251	0.000000	0.004325	0.000000	-0.000010	-0.000001	0.000000	0.000000
63.730426	12.586284	24.072928	-0.120050	0.089588	2.133537	0.000000	-0.000908	0.000000	-0.000011	-0.000001	0.000000	0.000000
64.171386	12.852451	23.728805	-0.485850	0.687837	2.146675	0.000000	0.060553	0.000000	-0.000011	-0.000001	0.000000	0.000000
64.612346	13.449757	22.868912	-0.873847	1.254790	2.187042	0.000000	0.122703	0.000000	-0.000012	-0.000001	0.000000	0.000000
65.053306	14.405490	21.532374	-1.301768	1.764650	2.255096	0.000000	0.186251	0.000000	-0.000012	-0.000002	0.000000	0.000000
65.494266	15.763314	19.780002	-1.789162	2.194221	2.351613	0.000000	0.251920	0.000000	-0.000013	-0.000002	0.000000	0.000000
65.940226	17.608427	17.666732	-2.362990	2.524709	2.479264	0.000000	0.320861	0.000000	-0.000014	-0.000002	0.000000	0.000000
66.489286	19.973736	15.302654	-1.919436	1.806388	2.635075	0.000000	0.245856	0.000000	-0.000015	-0.000002	0.000000	0.000000
67.038346	21.774186	13.652520	-1.340304	1.216732	2.748444	0.000000	0.166490	0.000000	-0.000016	-0.000001	0.000000	0.000000
67.587406	22.882602	12.598795	-0.666499	0.713741	2.817360	0.000000	0.084171	0.000000	-0.000017	-0.000001	0.000000	0.000000
68.136466	23.220690	12.066422	0.054384	0.261589	2.840601	0.000000	0.000359	0.000000	-0.000017	-0.000000	0.000000	0.000000
68.435038	23.228289	11.899410	-0.019154	0.266251	2.842925	0.000000	0.007782	0.000000	-0.000017	-0.000000	0.000000	0.000000
68.768372	23.245844	11.731909	-0.033510	0.236252	2.845519	0.000000	0.007782	0.000000	-0.000018	-0.000000	0.000000	0.000000
69.101705	23.272969	11.584407	-0.047865	0.206254	2.848113	0.000000	0.007782	0.000000	-0.000018	-0.000000	0.000000	0.000000
69.436288	23.309820	11.456463	-0.062275	0.176143	2.850717	0.000000	0.007782	0.000000	-0.000018	-0.000000	0.000000	0.000000
69.733611	23.350658	11.359676	-0.136100	0.179070	2.853031	0.000000	0.015238	0.000000	-0.000018	-0.000000	0.000000	0.000000
70.282671	23.099076	11.390540	0.591593	-0.235615	2.838219	0.000000	-0.069113	0.000000	-0.000018	0.000000	0.000000	0.000000
