#ParticleID	Turn	x[m]	xp	y[m]	yp	z[m]	dE[GeV]# s	beta_x	beta_y	alpha_x	alpha_y	D_x	D_y	D_px	D_py	orbit_x	orbit_px	orbit_y	orbit_py
0.300000	11.802776	25.061413	-0.010008	-0.026746	2.618325	0.000000	-0.000069	0.000000	-0.000002	0.000002	0.000000	0.000000
0.601250	11.816495	25.081151	-0.035534	-0.038775	2.618304	0.000000	-0.000069	0.000000	-0.000001	0.000002	0.000000	0.000000
0.898573	11.845116	25.107739	-0.031680	-0.112218	2.618283	0.000000	-0.006489	0.000000	-0.000000	0.000002	0.000000	0.000000
1.339533	12.025055	24.928170	-0.377928	0.517889	2.631714	0.000000	0.067472	0.000000	0.000000	0.000002	0.000000	0.000000
1.780493	12.516788	24.201206	-0.741444	1.124433	2.677898	0.000000	0.142201	0.000000	0.000001	0.000002	0.000000	0.000000
2.221453	13.342781	22.959920	-1.138833	1.679816	2.757360	0.000000	0.218551	0.000000	0.000002	0.000002	0.000000	0.000000
2.662413	14.540773	21.260792	-1.588253	2.158769	2.871006	0.000000	0.297389	0.000000	0.000003	0.000002	0.000000	0.000000
3.108373	16.186209	19.156215	-2.114520	2.540633	3.021990	0.000000	0.380104	0.000000	0.000004	0.000002	0.000000	0.000000
3.657433	18.296254	16.792402	-1.705744	1.789979	3.205417	0.000000	0.287067	0.000000	0.000005	0.000002	0.000000	0.000000
4.206493	19.888194	15.178468	-1.176482	1.166821	3.336286	0.000000	0.188938	0.000000	0.000006	0.000002	0.000000	0.000000
4.755553	20.849581	14.199456	-0.564120	0.626773	3.412276	0.000000	0.087457	0.000000	0.000007	0.000002	0.000000	0.000000
5.304613	21.112508	13.785634	0.088089	0.131368	3.432038	0.000000	-0.015574	0.000000	0.000008	0.000001	0.000000	0.000000
5.603185	21.097071	13.692328	0.018772	0.145120	3.430065	0.000000	-0.006608	0.000000	0.000008	0.000001	0.000000	0.000000
5.936519	21.089825	13.603867	0.002966	0.120263	3.427861	0.000000	-0.006608	0.000000	0.000009	0.000001	0.000000	0.000000
6.269852	21.093116	13.531978	-0.012839	0.095406	3.425658	0.000000	-0.006608	0.000000	0.000009	0.000001	0.000000	0.000000
6.604435	21.107016	13.476484	-0.028704	0.070455	3.423447	0.000000	-0.006608	0.000000	0.000010	0.000001	0.000000	0.000000
6.901758	21.128276	13.441180	-0.098002	0.083400	3.421482	0.000000	0.002331	0.000000	0.000010	0.000001	0.000000	0.000000
7.450818	20.875844	13.610578	0.555034	-0.393743	3.394562	0.000000	-0.100242	0.000000	0.000011	0.000001	0.000000	0.000000
7.999878	19.923685	14.316169	1.168864	-0.898932	3.311729	0.000000	-0.201038	0.000000	0.000011	0.000001	0.000000	0.000000
8.548938	18.339054	15.608213	1.700132	-1.468150	3.174453	0.000000	-0.298267	0.000000	0.000012	0.000000	0.000000	0.000000
9.097998	16.233881	17.578738	2.111310	-2.141941	2.985167	0.000000	-0.390207	0.000000	0.000012	-0.000000	0.000000	0.000000
9.543958	14.591518	19.334540	1.584543	-1.778547	2.829456	0.000000	-0.308508	0.000000	0.000012	0.000000	0.000000	0.000000
9.984918	13.397081	20.712941	1.134452	-1.335467	2.710660	0.000000	-0.230807	0.000000	0.000012	0.000001	0.000000	0.000000
10.425878	12.575320	21.672192	0.736190	-0.831624	2.625516	0.000000	-0.155735	0.000000	0.000012	0.000001	0.000000	0.000000
10.866838	12.088691	22.168648	0.371564	-0.289944	2.573053	0.000000	-0.082437	0.000000	0.000013	0.000001	0.000000	0.000000
11.309048	11.914829	22.179194	0.053022	0.210486	2.552654	0.000000	-0.016337	0.000000	0.000013	0.000002	0.000000	0.000000
11.606371	11.890740	22.058192	0.027998	0.196486	2.547796	0.000000	-0.016337	0.000000	0.000014	0.000002	0.000000	0.000000
12.086371	11.883253	21.880414	-0.012401	0.173886	2.539954	0.000000	-0.016337	0.000000	0.000015	0.000002	0.000000	0.000000
12.566371	11.914549	21.724332	-0.052800	0.151285	2.532111	0.000000	-0.016337	0.000000	0.000015	0.000002	0.000000	0.000000
13.046371	11.984629	21.589947	-0.093199	0.128684	2.524269	0.000000	-0.016337	0.000000	0.000016	0.000002	0.000000	0.000000
13.526371	12.093492	21.477259	-0.133599	0.106083	2.516426	0.000000	-0.016337	0.000000	0.000017	0.000002	0.000000	0.000000
14.007621	12.241573	21.386059	-0.174103	0.083424	2.508564	0.000000	-0.016337	0.000000	0.000018	0.000002	0.000000	0.000000
14.304943	12.352543	21.340613	-0.168840	0.017100	2.503706	0.000000	-0.022476	0.000000	0.000018	0.000001	0.000000	0.000000
14.745903	12.659918	21.091981	-0.530862	0.544597	2.509423	0.000000	0.048432	0.000000	0.000019	0.000002	0.000000	0.000000
15.186863	13.296016	20.387329	-0.917138	1.047316	2.546499	0.000000	0.119892	0.000000	0.000020	0.000002	0.000000	0.000000
15.627823	14.289898	19.258720	-1.345316	1.502382	2.615356	0.000000	0.192717	0.000000	0.000021	0.000003	0.000000	0.000000
16.068783	15.686972	17.757502	-1.834957	1.889091	2.716779	0.000000	0.267737	0.000000	0.000022	0.000004	0.000000	0.000000
16.514743	17.574729	15.930484	-2.413190	2.190590	2.853617	0.000000	0.346269	0.000000	0.000024	0.000004	0.000000	0.000000
17.063803	19.999415	13.890539	-1.976732	1.546680	3.020014	0.000000	0.258963	0.000000	0.000026	0.000003	0.000000	0.000000
17.612863	21.864842	12.493402	-1.400646	1.012937	3.137142	0.000000	0.167063	0.000000	0.000028	0.000002	0.000000	0.000000
18.161923	23.039246	11.639558	-0.725626	0.551343	3.202923	0.000000	0.072201	0.000000	0.000029	0.000002	0.000000	0.000000
18.710983	23.439673	11.268189	0.000649	0.129021	3.216191	0.000000	-0.023942	0.000000	0.000030	0.000001	0.000000	0.000000
19.009556	23.479665	11.181678	-0.073364	0.131293	3.211551	0.000000	-0.015541	0.000000	0.000030	0.000001	0.000000	0.000000
19.342889	23.533332	11.104258	-0.087637	0.100968	3.206370	0.000000	-0.015541	0.000000	0.000030	0.000001	0.000000	0.000000
19.676223	23.596515	11.047054	-0.101910	0.070644	3.201189	0.000000	-0.015541	0.000000	0.000030	0.000001	0.000000	0.000000
20.010806	23.669797	11.009829	-0.233510	0.094755	3.196009	0.000000	0.000294	0.000000	0.000030	0.000001	0.000000	0.000000
20.308129	23.812591	10.961585	-0.308959	0.096141	3.196096	0.000000	0.008643	0.000000	0.000031	0.000001	0.000000	0.000000
20.857189	23.741143	11.077873	0.438315	-0.309187	3.174631	0.000000	-0.086717	0.000000	0.000031	-0.000000	0.000000	0.000000
21.406249	22.861313	11.648671	1.154629	-0.736538	3.101154	0.000000	-0.180538	0.000000	0.000031	-0.000001	0.000000	0.000000
21.955309	21.235246	12.714632	1.789385	-1.216351	2.976968	0.000000	-0.271157	0.000000	0.000030	-0.000002	0.000000	0.000000
22.504369	18.977800	14.351685	2.297748	-1.782802	2.804277	0.000000	-0.356966	0.000000	0.000028	-0.000003	0.000000	0.000000
22.950329	17.198613	15.821582	1.705897	-1.499321	2.662373	0.000000	-0.279780	0.000000	0.000027	-0.000002	0.000000	0.000000
23.391289	15.923528	16.993615	1.196682	-1.148474	2.555319	0.000000	-0.206235	0.000000	0.000026	-0.000002	0.000000	0.000000
23.832249	15.071816	17.831916	0.742140	-0.745373	2.480147	0.000000	-0.135039	0.000000	0.000026	-0.000001	0.000000	0.000000
24.273209	14.604564	18.298344	0.321504	-0.308357	2.436001	0.000000	-0.065381	0.000000	0.000025	-0.000000	0.000000	0.000000
24.715418	14.500547	18.371432	-0.048979	0.097577	2.422374	0.000000	-0.002407	0.000000	0.000025	0.000000	0.000000	0.000000
25.012741	14.535783	18.318266	-0.069532	0.081239	2.421658	0.000000	-0.002407	0.000000	0.000026	0.000000	0.000000	0.000000
25.346075	14.589819	18.270212	-0.092575	0.062923	2.420856	0.000000	-0.002407	0.000000	0.000026	0.000000	0.000000	0.000000
25.679408	14.659217	18.234369	-0.115618	0.044606	2.420053	0.000000	-0.002407	0.000000	0.000026	0.000000	0.000000	0.000000
26.013991	14.744024	18.211041	-0.019134	-0.121517	2.419223	0.000000	-0.022033	0.000000	0.000026	0.000000	0.000000	0.000000
26.311314	14.761400	18.288227	-0.003117	-0.182921	2.412672	0.000000	-0.027948	0.000000	0.000026	0.000000	0.000000	0.000000
26.752274	14.945994	18.251244	-0.417090	0.266471	2.415454	0.000000	0.040575	0.000000	0.000026	0.000001	0.000000	0.000000
27.193234	15.502670	17.821786	-0.850118	0.703738	2.448523	0.000000	0.109560	0.000000	0.000027	0.000001	0.000000	0.000000
27.634194	16.456863	17.019393	-1.321986	1.108987	2.512259	0.000000	0.179794	0.000000	0.000027	0.000002	0.000000	0.000000
28.075154	17.852165	15.880574	-1.854253	1.463777	2.607386	0.000000	0.252075	0.000000	0.000028	0.000003	0.000000	0.000000
28.521114	19.776561	14.439984	-2.476208	1.752878	2.736590	0.000000	0.327670	0.000000	0.000030	0.000004	0.000000	0.000000
29.070174	22.222464	12.834991	-1.952128	1.187540	2.893844	0.000000	0.244304	0.000000	0.000032	0.000003	0.000000	0.000000
29.619234	24.013276	11.800994	-1.290158	0.706788	3.004067	0.000000	0.156605	0.000000	0.000033	0.000002	0.000000	0.000000
30.168294	25.022503	11.264343	-0.537059	0.276380	3.065303	0.000000	0.066128	0.000000	0.000033	0.000000	0.000000	0.000000
30.717354	25.178857	11.186814	0.253976	-0.134343	3.076467	0.000000	-0.025523	0.000000	0.000033	-0.000001	0.000000	0.000000
31.015927	25.070136	11.257644	0.175929	-0.132106	3.071246	0.000000	-0.017486	0.000000	0.000033	-0.000001	0.000000	0.000000
31.349260	24.957420	11.355757	0.162221	-0.162233	3.065417	0.000000	-0.017486	0.000000	0.000033	-0.000001	0.000000	0.000000
31.682593	24.853841	11.473954	0.148514	-0.192359	3.059588	0.000000	-0.017486	0.000000	0.000033	-0.000001	0.000000	0.000000
32.017177	24.759065	11.612792	0.134755	-0.222598	3.053738	0.000000	-0.017486	0.000000	0.000032	-0.000001	0.000000	0.000000
32.314499	24.682569	11.753148	0.058055	-0.218769	3.048539	0.000000	-0.009523	0.000000	0.000032	-0.000000	0.000000	0.000000
32.863559	24.195889	12.232551	0.823085	-0.659517	3.018438	0.000000	-0.099962	0.000000	0.000032	-0.000001	0.000000	0.000000
33.412619	22.896222	13.218747	1.529976	-1.147240	2.939096	0.000000	-0.188627	0.000000	0.000031	-0.000002	0.000000	0.000000
33.961679	20.875371	14.781983	2.128798	-1.716678	2.811920	0.000000	-0.273947	0.000000	0.000029	-0.000003	0.000000	0.000000
34.510739	18.276078	17.033604	2.577252	-2.408392	2.639166	0.000000	-0.354407	0.000000	0.000027	-0.000004	0.000000	0.000000
34.956699	16.254961	19.047635	1.971044	-2.088922	2.497452	0.000000	-0.281502	0.000000	0.000025	-0.000004	0.000000	0.000000
35.397659	14.747765	20.713781	1.459908	-1.675151	2.388699	0.000000	-0.212230	0.000000	0.000024	-0.000003	0.000000	0.000000
35.838619	13.660346	21.979883	1.015472	-1.185162	2.309930	0.000000	-0.145376	0.000000	0.000022	-0.000002	0.000000	0.000000
36.279579	12.943023	22.788334	0.617429	-0.641249	2.260248	0.000000	-0.080178	0.000000	0.000021	-0.000002	0.000000	0.000000
36.721789	12.562327	23.102662	0.278290	-0.124857	2.239061	0.000000	-0.021382	0.000000	0.000021	-0.000001	0.000000	0.000000
37.019112	12.404425	23.180794	0.252789	-0.137927	2.232704	0.000000	-0.021382	0.000000	0.000020	-0.000001	0.000000	0.000000
37.352445	12.245429	23.277630	0.224200	-0.152580	2.225577	0.000000	-0.021382	0.000000	0.000020	-0.000001	0.000000	0.000000
37.685779	12.105492	23.384234	0.195611	-0.167234	2.218450	0.000000	-0.021382	0.000000	0.000019	-0.000001	0.000000	0.000000
38.020362	11.984197	23.501063	0.166914	-0.181942	2.211296	0.000000	-0.021382	0.000000	0.000019	-0.000001	0.000000	0.000000
38.317684	11.892525	23.613140	0.170572	-0.252909	2.204939	0.000000	-0.026789	0.000000	0.000019	-0.000001	0.000000	0.000000
38.758644	11.893674	23.574623	-0.173189	0.339923	2.207050	0.000000	0.036371	0.000000	0.000018	-0.000001	0.000000	0.000000
39.199604	12.200323	23.018125	-0.524863	0.917289	2.237077	0.000000	0.099945	0.000000	0.000018	-0.000001	0.000000	0.000000
39.640564	12.826483	21.968966	-0.900516	1.452918	2.295361	0.000000	0.164657	0.000000	0.000018	-0.000000	0.000000	0.000000
40.081524	13.800760	20.474882	-1.317311	1.922441	2.382566	0.000000	0.231244	0.000000	0.000018	0.000000	0.000000	0.000000
40.527484	15.185244	18.581272	-1.798119	2.305782	2.501157	0.000000	0.300870	0.000000	0.000018	0.000001	0.000000	0.000000
41.076544	16.951867	16.453243	-1.400375	1.592861	2.645829	0.000000	0.225336	0.000000	0.000018	0.000000	0.000000	0.000000
41.625604	18.224485	15.041566	-0.903716	0.993396	2.747869	0.000000	0.145805	0.000000	0.000018	-0.000000	0.000000	0.000000
42.174664	18.913207	14.245688	-0.343223	0.464688	2.805466	0.000000	0.063688	0.000000	0.000018	-0.000001	0.000000	0.000000
42.723724	18.969384	14.008921	0.241513	-0.030921	2.817600	0.000000	-0.019558	0.000000	0.000017	-0.000001	0.000000	0.000000
43.022297	18.859630	14.011895	0.175637	-0.015637	2.813958	0.000000	-0.012197	0.000000	0.000017	-0.000001	0.000000	0.000000
43.502297	18.703612	14.043354	0.149401	-0.049902	2.808104	0.000000	-0.012197	0.000000	0.000016	-0.000001	0.000000	0.000000
43.982297	18.572781	14.107708	0.123165	-0.084167	2.802250	0.000000	-0.012197	0.000000	0.000015	-0.000001	0.000000	0.000000
44.462297	18.467136	14.204955	0.096928	-0.118432	2.796396	0.000000	-0.012197	0.000000	0.000015	-0.000001	0.000000	0.000000
44.942297	18.386678	14.335097	0.070692	-0.152697	2.790542	0.000000	-0.012197	0.000000	0.000014	-0.000001	0.000000	0.000000
45.423547	18.331524	14.498422	-0.046437	-0.115217	2.784690	0.000000	0.001599	0.000000	0.000013	-0.000001	0.000000	0.000000
45.720870	18.363970	14.573113	-0.110668	-0.097924	2.785166	0.000000	0.008876	0.000000	0.000013	-0.000001	0.000000	0.000000
46.269930	18.176295	14.962429	0.450455	-0.615320	2.767474	0.000000	-0.073230	0.000000	0.000012	-0.000002	0.000000	0.000000
46.818990	17.386344	15.940496	0.979760	-1.176544	2.704991	0.000000	-0.154037	0.000000	0.000011	-0.000002	0.000000	0.000000
47.368050	16.049916	17.576981	1.439860	-1.821570	2.598827	0.000000	-0.232111	0.000000	0.000010	-0.000002	0.000000	0.000000
47.917110	14.261409	19.988446	1.798255	-2.596343	2.450864	0.000000	-0.306069	0.000000	0.000008	-0.000003	0.000000	0.000000
48.363070	12.869706	22.132350	1.333491	-2.190838	2.329660	0.000000	-0.237781	0.000000	0.000007	-0.000003	0.000000	0.000000
48.804030	11.873866	23.848822	0.933422	-1.686929	2.239266	0.000000	-0.172599	0.000000	0.000006	-0.000002	0.000000	0.000000
49.244990	11.210787	25.085214	0.575998	-1.106266	2.177155	0.000000	-0.109383	0.000000	0.000005	-0.000002	0.000000	0.000000
49.685950	10.850175	25.785272	0.244890	-0.475269	2.142619	0.000000	-0.047412	0.000000	0.000004	-0.000002	0.000000	0.000000
50.128160	10.775678	25.916859	-0.048722	0.113750	2.135275	0.000000	0.008783	0.000000	0.000003	-0.000002	0.000000	0.000000
50.425482	10.812873	25.852673	-0.076379	0.102129	2.137887	0.000000	0.008783	0.000000	0.000003	-0.000002	0.000000	0.000000
50.758816	10.874129	25.788929	-0.107387	0.089101	2.140815	0.000000	0.008783	0.000000	0.000002	-0.000002	0.000000	0.000000
51.092149	10.956056	25.733871	-0.138394	0.076073	2.143743	0.000000	0.008783	0.000000	0.000001	-0.000002	0.000000	0.000000
51.426732	11.058853	25.687862	-0.079801	-0.145396	2.146661	0.000000	-0.008632	0.000000	0.000001	-0.000002	0.000000	0.000000
51.724055	11.114351	25.777835	-0.079602	-0.220431	2.144095	0.000000	-0.013890	0.000000	-0.000000	-0.000002	0.000000	0.000000
52.165015	11.329705	25.685422	-0.410627	0.429206	2.151558	0.000000	0.047770	0.000000	-0.000001	-0.000002	0.000000	0.000000
52.605975	11.844135	25.026537	-0.760413	1.059314	2.186305	0.000000	0.109974	0.000000	-0.000002	-0.000002	0.000000	0.000000
53.046935	12.681143	23.831160	-1.144939	1.641224	2.248732	0.000000	0.173430	0.000000	-0.000003	-0.000002	0.000000	0.000000
53.487895	13.878970	22.153677	-1.581775	2.148460	2.339548	0.000000	0.238862	0.000000	-0.000004	-0.000002	0.000000	0.000000
53.933855	15.512879	20.045337	-2.095100	2.559281	2.461294	0.000000	0.307413	0.000000	-0.000005	-0.000002	0.000000	0.000000
54.482915	17.616557	17.672841	-1.713639	1.787239	2.609903	0.000000	0.233107	0.000000	-0.000006	-0.000002	0.000000	0.000000
55.031975	19.231995	16.073679	-1.211134	1.142498	2.716516	0.000000	0.154666	0.000000	-0.000007	-0.000002	0.000000	0.000000
55.581035	20.245086	15.133947	-0.623082	0.579135	2.779243	0.000000	0.073482	0.000000	-0.000008	-0.000002	0.000000	0.000000
56.130095	20.584270	14.786709	0.008983	0.057022	2.796971	0.000000	-0.009006	0.000000	-0.000009	-0.000001	0.000000	0.000000
56.428668	20.615364	14.735670	-0.059338	0.075283	2.796464	0.000000	-0.001697	0.000000	-0.000009	-0.000001	0.000000	0.000000
56.762001	20.660332	14.693065	-0.075565	0.052534	2.795899	0.000000	-0.001697	0.000000	-0.000010	-0.000001	0.000000	0.000000
57.095334	20.716117	14.665625	-0.091791	0.029785	2.795334	0.000000	-0.001697	0.000000	-0.000010	-0.000001	0.000000	0.000000
57.429918	20.782990	14.653334	-0.108078	0.006950	2.794766	0.000000	-0.001697	0.000000	-0.000011	-0.000001	0.000000	0.000000
57.727240	20.851561	14.655234	-0.177037	0.024954	2.794262	0.000000	0.005604	0.000000	-0.000011	-0.000001	0.000000	0.000000
58.276300	20.690283	14.909177	0.469032	-0.490189	2.774698	0.000000	-0.076766	0.000000	-0.000012	-0.000001	0.000000	0.000000
58.825360	19.833617	15.744547	1.081971	-1.040247	2.710215	0.000000	-0.157774	0.000000	-0.000012	-0.000001	0.000000	0.000000
59.374420	18.342075	17.220846	1.618486	-1.664400	2.601958	0.000000	-0.235984	0.000000	-0.000013	-0.000000	0.000000	0.000000
59.923480	16.321011	19.443227	2.040678	-2.407103	2.451846	0.000000	-0.310008	0.000000	-0.000013	0.000000	0.000000	0.000000
60.369440	14.739196	21.418443	1.518872	-2.003332	2.328886	0.000000	-0.241718	0.000000	-0.000013	-0.000000	0.000000	0.000000
60.810400	13.601634	22.973506	1.070656	-1.509789	2.236748	0.000000	-0.176578	0.000000	-0.000013	-0.000001	0.000000	0.000000
61.251360	12.836380	24.061234	0.671355	-0.947552	2.172864	0.000000	-0.113450	0.000000	-0.000013	-0.000001	0.000000	0.000000
61.692320	12.408472	24.632136	0.302726	-0.342202	2.136506	0.000000	-0.051613	0.000000	-0.000014	-0.000001	0.000000	0.000000
62.134530	12.298416	24.659691	-0.022010	0.218184	2.127265	0.000000	0.004418	0.000000	-0.000014	-0.000002	0.000000	0.000000
62.431853	12.318695	24.533704	-0.046197	0.205553	2.128580	0.000000	0.004418	0.000000	-0.000015	-0.000002	0.000000	0.000000
62.765186	12.358533	24.401389	-0.073314	0.191392	2.130053	0.000000	0.004418	0.000000	-0.000015	-0.000002	0.000000	0.000000
63.098520	12.416448	24.278515	-0.100431	0.177231	2.131526	0.000000	0.004418	0.000000	-0.000016	-0.000002	0.000000	0.000000
63.433103	12.492760	24.164674	-0.127650	0.163017	2.133005	0.000000	0.004418	0.000000	-0.000016	-0.000002	0.000000	0.000000
63.730426	12.575857	24.071492	-0.120992	0.091346	2.134319	0.000000	-0.000817	0.000000	-0.000017	-0.000002	0.000000	0.000000
64.171386	12.842760	23.725850	-0.486581	0.689511	2.147503	0.000000	0.060665	0.000000	-0.000018	-0.000002	0.000000	0.000000
64.612346	13.440629	22.864547	-0.874399	1.256303	2.187924	0.000000	0.122837	0.000000	-0.000019	-0.000002	0.000000	0.000000
65.053306	14.396779	21.526770	-1.302167	1.765935	2.256043	0.000000	0.186409	0.000000	-0.000020	-0.000003	0.000000	0.000000
65.494266	15.754895	19.773388	-1.789426	2.195219	2.352635	0.000000	0.252104	0.000000	-0.000021	-0.000003	0.000000	0.000000
65.940226	17.600186	17.659376	-2.363130	2.525371	2.480375	0.000000	0.321072	0.000000	-0.000023	-0.000004	0.000000	0.000000
66.489286	19.965857	15.294542	-1.919951	1.807112	2.636292	0.000000	0.246029	0.000000	-0.000025	-0.000003	0.000000	0.000000
67.038346	21.767061	13.643557	-1.341156	1.217569	2.749746	0.000000	0.166622	0.000000	-0.000026	-0.000002	0.000000	0.000000
67.587406	22.876571	12.588823	-0.667629	0.714751	2.818723	0.000000	0.084260	0.000000	-0.000027	-0.000002	0.000000	0.000000
68.136466	23.216017	12.055214	0.053056	0.262844	2.842001	0.000000	0.000404	0.000000	-0.000028	-0.000001	0.000000	0.000000
68.435038	23.224406	11.887481	-0.020478	0.267436	2.844339	0.000000	0.007831	0.000000	-0.000028	-0.000001	0.000000	0.000000
68.768372	23.242844	11.719205	-0.034837	0.237390	2.846950	0.000000	0.007831	0.000000	-0.000029	-0.000001	0.000000	0.000000
69.101705	23.270855	11.570960	-0.049196	0.207344	2.849561	0.000000	0.007831	0.000000	-0.000029	-0.000001	0.000000	0.000000
69.436288	23.308597	11.442304	-0.063608	0.177185	2.852181	0.000000	0.007831	0.000000	-0.000029	-0.000001	0.000000	0.000000
69.733611	23.350230	11.344910	-0.137441	0.180034	2.854509	0.000000	0.015291	0.000000	-0.000029	-0.000001	0.000000	0.000000
70.282671	23.100115	11.374485	0.590277	-0.234218	2.839714	0.000000	-0.069108	0.000000	-0.000029	0.000000	0.000000	0.000000
