#ParticleID	Turn	x[m]	xp	y[m]	yp	z[m]	dE[GeV]# s	beta_x	beta_y	alpha_x	alpha_y	D_x	D_y	D_px	D_py	orbit_x	orbit_px	orbit_y	orbit_py
0.300000	11.814539	25.016006	-0.011083	-0.027317	2.618045	0.000000	0.000038	0.000000	-0.000001	0.000001	0.000000	0.000000
0.601250	11.828899	25.036095	-0.036584	-0.039368	2.618056	0.000000	0.000038	0.000000	-0.000000	0.000001	0.000000	0.000000
0.898573	11.858137	25.063041	-0.032674	-0.112724	2.618067	0.000000	-0.006383	0.000000	0.000000	0.000001	0.000000	0.000000
1.339533	12.039090	24.884439	-0.379245	0.516213	2.631545	0.000000	0.067574	0.000000	0.000001	0.000001	0.000000	0.000000
1.780493	12.532148	24.159443	-0.743142	1.121662	2.677774	0.000000	0.142300	0.000000	0.000001	0.000001	0.000000	0.000000
2.221453	13.359836	22.921039	-1.140992	1.676077	2.757279	0.000000	0.218646	0.000000	0.000002	0.000001	0.000000	0.000000
2.662413	14.559969	21.225574	-1.590971	2.154232	2.870966	0.000000	0.297483	0.000000	0.000002	0.000001	0.000000	0.000000
3.108373	16.208127	19.125325	-2.117926	2.535503	3.021992	0.000000	0.380197	0.000000	0.000003	0.000001	0.000000	0.000000
3.657433	18.321611	16.766440	-1.708564	1.786081	3.205471	0.000000	0.287159	0.000000	0.000004	0.000001	0.000000	0.000000
4.206493	19.916231	15.156240	-1.178517	1.163878	3.336391	0.000000	0.189028	0.000000	0.000004	0.000001	0.000000	0.000000
4.755553	20.879352	14.180035	-0.565225	0.624575	3.412429	0.000000	0.087543	0.000000	0.000005	0.000001	0.000000	0.000000
5.304613	21.142943	13.768291	0.087991	0.129759	3.432237	0.000000	-0.015494	0.000000	0.000006	0.000001	0.000000	0.000000
5.603185	21.127607	13.675978	0.018614	0.143450	3.430288	0.000000	-0.006527	0.000000	0.000006	0.000001	0.000000	0.000000
5.936519	21.120459	13.588636	0.002831	0.118575	3.428112	0.000000	-0.006527	0.000000	0.000006	0.000001	0.000000	0.000000
6.269852	21.123832	13.517878	-0.012951	0.093699	3.425936	0.000000	-0.006527	0.000000	0.000006	0.000001	0.000000	0.000000
6.604435	21.137799	13.463532	-0.028793	0.068731	3.423752	0.000000	-0.006527	0.000000	0.000007	0.000001	0.000000	0.000000
6.901758	21.159106	13.429258	-0.098152	0.081629	3.421811	0.000000	0.002413	0.000000	0.000007	0.000001	0.000000	0.000000
7.450818	20.906273	13.600424	0.555911	-0.395213	3.394934	0.000000	-0.100172	0.000000	0.000007	0.000001	0.000000	0.000000
7.999878	19.952611	14.307512	1.170707	-0.900205	3.312136	0.000000	-0.200980	0.000000	0.000008	0.000000	0.000000	0.000000
8.548938	18.365482	15.600887	1.702811	-1.469317	3.174888	0.000000	-0.298223	0.000000	0.000008	0.000000	0.000000	0.000000
9.097998	16.256993	17.572674	2.114636	-2.143085	2.985623	0.000000	-0.390177	0.000000	0.000008	-0.000000	0.000000	0.000000
9.543958	14.611986	19.329637	1.587167	-1.779994	2.829927	0.000000	-0.308466	0.000000	0.000008	0.000000	0.000000	0.000000
9.984918	13.415496	20.709422	1.136501	-1.337148	2.711153	0.000000	-0.230753	0.000000	0.000008	0.000000	0.000000	0.000000
10.425878	12.592147	21.670231	0.737757	-0.833462	2.626036	0.000000	-0.155668	0.000000	0.000008	0.000001	0.000000	0.000000
10.866838	12.104321	22.168346	0.372720	-0.291855	2.573606	0.000000	-0.082356	0.000000	0.000008	0.000001	0.000000	0.000000
11.309048	11.929597	22.180583	0.053859	0.208582	2.553246	0.000000	-0.016242	0.000000	0.000009	0.000001	0.000000	0.000000
11.606371	11.905002	22.060710	0.028864	0.194594	2.548417	0.000000	-0.016242	0.000000	0.000009	0.000001	0.000000	0.000000
12.086371	11.896662	21.884738	-0.011489	0.172012	2.540620	0.000000	-0.016242	0.000000	0.000009	0.000001	0.000000	0.000000
12.566371	11.927060	21.730446	-0.051842	0.149430	2.532823	0.000000	-0.016242	0.000000	0.000010	0.000001	0.000000	0.000000
13.046371	11.996198	21.597832	-0.092194	0.126848	2.525026	0.000000	-0.016242	0.000000	0.000010	0.000001	0.000000	0.000000
13.526371	12.104074	21.486897	-0.132547	0.104266	2.517229	0.000000	-0.016242	0.000000	0.000011	0.000001	0.000000	0.000000
14.007621	12.251121	21.397437	-0.173005	0.081625	2.509412	0.000000	-0.016242	0.000000	0.000011	0.000001	0.000000	0.000000
14.304943	12.361429	21.353058	-0.167690	0.015279	2.504583	0.000000	-0.022384	0.000000	0.000011	0.000001	0.000000	0.000000
14.745903	12.667865	21.105872	-0.529876	0.543151	2.510345	0.000000	0.048547	0.000000	0.000012	0.000001	0.000000	0.000000
15.186863	13.303149	20.402306	-0.916271	1.046309	2.547478	0.000000	0.120031	0.000000	0.000012	0.000001	0.000000	0.000000
15.627823	14.296304	19.274373	-1.344528	1.501862	2.616403	0.000000	0.192883	0.000000	0.000013	0.000002	0.000000	0.000000
16.068783	15.692704	17.773391	-1.834213	1.889080	2.717905	0.000000	0.267931	0.000000	0.000014	0.000002	0.000000	0.000000
16.514743	17.579804	15.946151	-2.412455	2.191092	2.854837	0.000000	0.346493	0.000000	0.000015	0.000003	0.000000	0.000000
17.063803	20.003507	13.905861	-1.975689	1.546812	3.021347	0.000000	0.259145	0.000000	0.000016	0.000002	0.000000	0.000000
17.612863	21.867654	12.508778	-1.399371	1.012707	3.138563	0.000000	0.167201	0.000000	0.000017	0.000002	0.000000	0.000000
18.161923	23.040571	11.655392	-0.724209	0.550735	3.204408	0.000000	0.072292	0.000000	0.000018	0.000001	0.000000	0.000000
18.710983	23.439408	11.284918	0.002109	0.127991	3.217712	0.000000	-0.023900	0.000000	0.000018	0.000000	0.000000	0.000000
19.009556	23.478530	11.198980	-0.071907	0.130358	3.213086	0.000000	-0.015494	0.000000	0.000018	0.000000	0.000000	0.000000
19.342889	23.531226	11.122165	-0.086178	0.100087	3.207921	0.000000	-0.015494	0.000000	0.000019	0.000000	0.000000	0.000000
19.676223	23.593435	11.065530	-0.100449	0.069817	3.202756	0.000000	-0.015494	0.000000	0.000019	0.000000	0.000000	0.000000
20.010806	23.665737	11.028840	-0.232026	0.094077	3.197592	0.000000	0.000349	0.000000	0.000019	0.000000	0.000000	0.000000
20.308129	23.807647	10.980984	-0.307461	0.095566	3.197696	0.000000	0.008702	0.000000	0.000019	0.000001	0.000000	0.000000
20.857189	23.734653	11.098205	0.439617	-0.310319	3.176249	0.000000	-0.086709	0.000000	0.000019	-0.000000	0.000000	0.000000
21.406249	22.853543	11.670586	1.155643	-0.738308	3.102761	0.000000	-0.180582	0.000000	0.000019	-0.000001	0.000000	0.000000
21.955309	21.226554	12.738896	1.790041	-1.218885	2.978537	0.000000	-0.271252	0.000000	0.000018	-0.000001	0.000000	0.000000
22.504369	18.968608	14.379231	2.297998	-1.786280	2.805779	0.000000	-0.357111	0.000000	0.000017	-0.000002	0.000000	0.000000
22.950329	17.189134	15.851949	1.706295	-1.502143	2.663818	0.000000	-0.279887	0.000000	0.000017	-0.000001	0.000000	0.000000
23.391289	15.913627	17.026132	1.197245	-1.150513	2.556725	0.000000	-0.206306	0.000000	0.000016	-0.000001	0.000000	0.000000
23.832249	15.061337	17.865850	0.742893	-0.746536	2.481529	0.000000	-0.135074	0.000000	0.000016	-0.000001	0.000000	0.000000
24.273209	14.593324	18.332897	0.322482	-0.308592	2.437375	0.000000	-0.065381	0.000000	0.000016	-0.000000	0.000000	0.000000
24.715418	14.488326	18.405776	-0.047758	0.098194	2.423757	0.000000	-0.002375	0.000000	0.000016	0.000000	0.000000	0.000000
25.012741	14.522840	18.352234	-0.068326	0.081884	2.423051	0.000000	-0.002375	0.000000	0.000016	0.000000	0.000000	0.000000
25.346075	14.576078	18.303740	-0.091385	0.063600	2.422259	0.000000	-0.002375	0.000000	0.000016	0.000000	0.000000	0.000000
25.679408	14.644688	18.267435	-0.114445	0.045315	2.421468	0.000000	-0.002375	0.000000	0.000016	0.000000	0.000000	0.000000
26.013991	14.728716	18.243623	-0.018102	-0.121040	2.420649	0.000000	-0.022013	0.000000	0.000016	0.000000	0.000000	0.000000
26.311314	14.745484	18.320515	-0.002140	-0.182497	2.414104	0.000000	-0.027932	0.000000	0.000016	-0.000000	0.000000	0.000000
26.752274	14.929043	18.282773	-0.415709	0.267763	2.416901	0.000000	0.040629	0.000000	0.000016	0.000000	0.000000	0.000000
27.193234	15.484302	17.851813	-0.848271	0.705839	2.450003	0.000000	0.109652	0.000000	0.000016	0.000001	0.000000	0.000000
27.634194	16.436628	17.047245	-1.319588	1.111800	2.513787	0.000000	0.179924	0.000000	0.000017	0.000001	0.000000	0.000000
28.075154	17.829532	15.905676	-1.851193	1.467175	2.608981	0.000000	0.252245	0.000000	0.000017	0.000002	0.000000	0.000000
28.521114	19.750850	14.461849	-2.472341	1.756707	2.738271	0.000000	0.327883	0.000000	0.000018	0.000002	0.000000	0.000000
29.070174	22.192860	12.853144	-1.948948	1.190513	2.895627	0.000000	0.244461	0.000000	0.000019	0.000002	0.000000	0.000000
29.619234	23.980663	11.816253	-1.287891	0.709117	3.005920	0.000000	0.156703	0.000000	0.000020	0.000001	0.000000	0.000000
30.168294	24.987978	11.277321	-0.535864	0.278230	3.067194	0.000000	0.066165	0.000000	0.000020	0.000000	0.000000	0.000000
30.717354	25.143653	11.197961	0.254014	-0.132840	3.078361	0.000000	-0.025546	0.000000	0.000020	-0.000000	0.000000	0.000000
31.015927	25.034864	11.267864	0.176033	-0.130536	3.073135	0.000000	-0.017505	0.000000	0.000020	-0.000000	0.000000	0.000000
31.349260	24.922084	11.364916	0.162306	-0.160622	3.067300	0.000000	-0.017505	0.000000	0.000020	-0.000000	0.000000	0.000000
31.682593	24.818456	11.482026	0.148578	-0.190709	3.061465	0.000000	-0.017505	0.000000	0.000020	-0.000000	0.000000	0.000000
32.017177	24.723643	11.619747	0.134800	-0.220909	3.055609	0.000000	-0.017505	0.000000	0.000020	-0.000000	0.000000	0.000000
32.314499	24.647125	11.759088	0.058167	-0.217026	3.050404	0.000000	-0.009536	0.000000	0.000020	-0.000000	0.000000	0.000000
32.863559	24.160967	12.236625	0.822028	-0.657843	3.020280	0.000000	-0.100034	0.000000	0.000019	-0.000001	0.000000	0.000000
33.412619	22.863073	13.220969	1.527825	-1.145518	2.940882	0.000000	-0.188758	0.000000	0.000019	-0.000002	0.000000	0.000000
33.961679	20.845119	14.782231	2.125704	-1.714785	2.813617	0.000000	-0.274134	0.000000	0.000018	-0.000002	0.000000	0.000000
34.510739	18.249646	17.031618	2.573433	-2.406193	2.640745	0.000000	-0.354648	0.000000	0.000016	-0.000003	0.000000	0.000000
34.956699	16.231559	19.043612	1.968041	-2.086571	2.498932	0.000000	-0.281703	0.000000	0.000015	-0.000002	0.000000	0.000000
35.397659	14.726707	20.707658	1.457577	-1.672758	2.390098	0.000000	-0.212394	0.000000	0.000014	-0.000002	0.000000	0.000000
35.838619	13.641089	21.971671	1.013705	-1.182835	2.311264	0.000000	-0.145505	0.000000	0.000014	-0.000002	0.000000	0.000000
36.279579	12.925106	22.778138	0.616146	-0.639094	2.261533	0.000000	-0.080273	0.000000	0.000013	-0.000001	0.000000	0.000000
36.721789	12.545353	23.090673	0.277393	-0.122947	2.240310	0.000000	-0.021448	0.000000	0.000012	-0.000001	0.000000	0.000000
37.019112	12.387991	23.167669	0.251870	-0.136018	2.233933	0.000000	-0.021448	0.000000	0.000012	-0.000001	0.000000	0.000000
37.352445	12.229616	23.263233	0.223255	-0.150672	2.226784	0.000000	-0.021448	0.000000	0.000012	-0.000001	0.000000	0.000000
37.685779	12.090318	23.368565	0.194640	-0.165326	2.219635	0.000000	-0.021448	0.000000	0.000012	-0.000001	0.000000	0.000000
38.020362	11.969681	23.484118	0.165918	-0.180035	2.212459	0.000000	-0.021448	0.000000	0.000011	-0.000001	0.000000	0.000000
38.317684	11.878608	23.595061	0.169521	-0.250963	2.206083	0.000000	-0.026858	0.000000	0.000011	-0.000001	0.000000	0.000000
38.758644	11.880546	23.555046	-0.173934	0.341363	2.208170	0.000000	0.036331	0.000000	0.000011	-0.000001	0.000000	0.000000
39.199604	12.187730	22.997526	-0.525335	0.918157	2.238185	0.000000	0.099933	0.000000	0.000010	-0.000000	0.000000	0.000000
39.640564	12.814194	21.947868	-0.900737	1.453176	2.296470	0.000000	0.164674	0.000000	0.000010	-0.000000	0.000000	0.000000
40.081524	13.788560	20.453831	-1.317292	1.922077	2.383689	0.000000	0.231290	0.000000	0.000010	0.000000	0.000000	0.000000
40.527484	15.172919	18.560821	-1.797857	2.304807	2.502308	0.000000	0.300946	0.000000	0.000011	0.000000	0.000000	0.000000
41.076544	16.939526	16.433552	-1.400606	1.592445	2.647011	0.000000	0.225374	0.000000	0.000011	0.000000	0.000000	0.000000
41.625604	18.212662	15.022039	-0.904424	0.993509	2.749061	0.000000	0.145805	0.000000	0.000011	-0.000000	0.000000	0.000000
42.174664	18.902401	14.225744	-0.344357	0.465339	2.806647	0.000000	0.063649	0.000000	0.000010	-0.000001	0.000000	0.000000
42.723724	18.960022	13.987949	0.240033	-0.029687	2.818749	0.000000	-0.019635	0.000000	0.000010	-0.000001	0.000000	0.000000
43.022297	18.851139	13.990227	0.174179	-0.014487	2.815085	0.000000	-0.012271	0.000000	0.000010	-0.000001	0.000000	0.000000
43.502297	18.696520	14.020607	0.147944	-0.048804	2.809196	0.000000	-0.012271	0.000000	0.000009	-0.000001	0.000000	0.000000
43.982297	18.567086	14.083931	0.121709	-0.083121	2.803306	0.000000	-0.012271	0.000000	0.000009	-0.000001	0.000000	0.000000
44.462297	18.462838	14.180199	0.095474	-0.117438	2.797417	0.000000	-0.012271	0.000000	0.000008	-0.000001	0.000000	0.000000
44.942297	18.383776	14.309412	0.069239	-0.151755	2.791527	0.000000	-0.012271	0.000000	0.000008	-0.000001	0.000000	0.000000
45.423547	18.330020	14.471855	-0.047882	-0.114459	2.785640	0.000000	0.001531	0.000000	0.000008	-0.000001	0.000000	0.000000
45.720870	18.363326	14.546106	-0.112117	-0.097269	2.786095	0.000000	0.008810	0.000000	0.000007	-0.000001	0.000000	0.000000
46.269930	18.177241	14.934249	0.449026	-0.613827	2.768358	0.000000	-0.073325	0.000000	0.000007	-0.000001	0.000000	0.000000
46.818990	17.388802	15.910171	0.978452	-1.174106	2.705815	0.000000	-0.154160	0.000000	0.000006	-0.000001	0.000000	0.000000
47.368050	16.053701	17.543384	1.438765	-1.818015	2.599576	0.000000	-0.232260	0.000000	0.000005	-0.000001	0.000000	0.000000
47.917110	14.266243	19.950220	1.797451	-2.591416	2.451524	0.000000	-0.306240	0.000000	0.000005	-0.000002	0.000000	0.000000
48.363070	12.875259	22.090098	1.332679	-2.186776	2.330247	0.000000	-0.237936	0.000000	0.000004	-0.000002	0.000000	0.000000
48.804030	11.880153	23.803437	0.932563	-1.683912	2.239788	0.000000	-0.172740	0.000000	0.000003	-0.000001	0.000000	0.000000
49.244990	11.217867	25.037681	0.575053	-1.104431	2.177617	0.000000	-0.109511	0.000000	0.000003	-0.000001	0.000000	0.000000
49.685950	10.858143	25.736675	0.243815	-0.474700	2.143027	0.000000	-0.047529	0.000000	0.000002	-0.000001	0.000000	0.000000
50.128160	10.784672	25.868332	-0.049952	0.113144	2.135633	0.000000	0.008675	0.000000	0.000001	-0.000001	0.000000	0.000000
50.425482	10.822593	25.804512	-0.077590	0.101503	2.138213	0.000000	0.008675	0.000000	0.000001	-0.000001	0.000000	0.000000
50.758816	10.884648	25.741193	-0.108575	0.088453	2.141105	0.000000	0.008675	0.000000	0.000001	-0.000001	0.000000	0.000000
51.092149	10.967361	25.686575	-0.139561	0.075402	2.143997	0.000000	0.008675	0.000000	0.000000	-0.000001	0.000000	0.000000
51.426732	11.070931	25.641022	-0.080847	-0.145710	2.146878	0.000000	-0.008742	0.000000	-0.000000	-0.000001	0.000000	0.000000
51.724055	11.127044	25.731188	-0.080592	-0.220653	2.144279	0.000000	-0.014000	0.000000	-0.000000	-0.000001	0.000000	0.000000
52.165015	11.343406	25.639516	-0.411930	0.427756	2.151695	0.000000	0.047664	0.000000	-0.000001	-0.000001	0.000000	0.000000
52.605975	11.859144	24.982429	-0.762089	1.056702	2.186396	0.000000	0.109870	0.000000	-0.000002	-0.000001	0.000000	0.000000
53.046935	12.697823	23.789824	-1.147064	1.637570	2.248777	0.000000	0.173329	0.000000	-0.000002	-0.000001	0.000000	0.000000
53.487895	13.897757	22.115965	-1.584446	2.143929	2.339548	0.000000	0.238761	0.000000	-0.000003	-0.000001	0.000000	0.000000
53.933855	15.534340	20.011984	-2.098446	2.554078	2.461249	0.000000	0.307311	0.000000	-0.000003	-0.000001	0.000000	0.000000
54.482915	17.641396	17.644462	-1.716409	1.783329	2.609802	0.000000	0.233008	0.000000	-0.000004	-0.000001	0.000000	0.000000
55.031975	19.259470	16.049016	-1.213135	1.139602	2.716362	0.000000	0.154571	0.000000	-0.000005	-0.000001	0.000000	0.000000
55.581035	20.274267	15.112004	-0.624170	0.577046	2.779038	0.000000	0.073393	0.000000	-0.000006	-0.000001	0.000000	0.000000
56.130095	20.614108	14.766686	0.008883	0.055592	2.796718	0.000000	-0.009087	0.000000	-0.000006	-0.000001	0.000000	0.000000
56.428668	20.645302	14.716539	-0.059494	0.073778	2.796187	0.000000	-0.001780	0.000000	-0.000006	-0.000001	0.000000	0.000000
56.762001	20.690366	14.674945	-0.075697	0.051005	2.795594	0.000000	-0.001780	0.000000	-0.000007	-0.000001	0.000000	0.000000
57.095334	20.746231	14.648533	-0.091900	0.028231	2.795001	0.000000	-0.001780	0.000000	-0.000007	-0.000001	0.000000	0.000000
57.429918	20.813169	14.637290	-0.108164	0.005372	2.794406	0.000000	-0.001780	0.000000	-0.000007	-0.000001	0.000000	0.000000
57.727240	20.881785	14.640135	-0.177180	0.023313	2.793877	0.000000	0.005521	0.000000	-0.000007	-0.000001	0.000000	0.000000
58.276300	20.720108	14.895652	0.469899	-0.491432	2.774270	0.000000	-0.076836	0.000000	-0.000008	-0.000001	0.000000	0.000000
58.825360	19.861962	15.732210	1.083786	-1.041180	2.709752	0.000000	-0.157830	0.000000	-0.000008	-0.000000	0.000000	0.000000
59.374420	18.367963	17.209395	1.621120	-1.665090	2.601468	0.000000	-0.236025	0.000000	-0.000008	-0.000000	0.000000	0.000000
59.923480	16.343639	19.432424	2.043946	-2.407600	2.451338	0.000000	-0.310033	0.000000	-0.000008	0.000000	0.000000	0.000000
60.369440	14.759225	21.408267	1.521453	-2.004237	2.328365	0.000000	-0.241756	0.000000	-0.000008	-0.000000	0.000000	0.000000
60.810400	13.619643	22.964292	1.072674	-1.511057	2.236207	0.000000	-0.176630	0.000000	-0.000008	-0.000000	0.000000	0.000000
61.251360	12.852822	24.053278	0.672902	-0.949126	2.172296	0.000000	-0.113516	0.000000	-0.000009	-0.000000	0.000000	0.000000
61.692320	12.423731	24.625677	0.303874	-0.344010	2.135906	0.000000	-0.051694	0.000000	-0.000009	-0.000001	0.000000	0.000000
62.134530	12.312817	24.654905	-0.021176	0.216238	2.126626	0.000000	0.004323	0.000000	-0.000009	-0.000001	0.000000	0.000000
62.431853	12.332592	24.530073	-0.045334	0.203614	2.127912	0.000000	0.004323	0.000000	-0.000009	-0.000001	0.000000	0.000000
62.765186	12.371842	24.399048	-0.072418	0.189462	2.129353	0.000000	0.004323	0.000000	-0.000010	-0.000001	0.000000	0.000000
63.098520	12.429149	24.277457	-0.099502	0.175310	2.130795	0.000000	0.004323	0.000000	-0.000010	-0.000001	0.000000	0.000000
63.433103	12.504828	24.164898	-0.126688	0.161105	2.132241	0.000000	0.004323	0.000000	-0.000010	-0.000001	0.000000	0.000000
63.730426	12.587346	24.072851	-0.119975	0.089442	2.133527	0.000000	-0.000909	0.000000	-0.000011	-0.000001	0.000000	0.000000
64.171386	12.853458	23.728857	-0.485798	0.687692	2.146665	0.000000	0.060551	0.000000	-0.000011	-0.000001	0.000000	0.000000
64.612346	13.450726	22.869089	-0.873815	1.254653	2.187031	0.000000	0.122701	0.000000	-0.000012	-0.000001	0.000000	0.000000
65.053306	14.406439	21.532665	-1.301754	1.764529	2.255084	0.000000	0.186249	0.000000	-0.000012	-0.000002	0.000000	0.000000
65.494266	15.764259	19.780392	-1.789166	2.194119	2.351600	0.000000	0.251918	0.000000	-0.000013	-0.000002	0.000000	0.000000
65.940226	17.609383	17.667202	-2.363012	2.524633	2.479250	0.000000	0.320858	0.000000	-0.000014	-0.000002	0.000000	0.000000
66.489286	19.974695	15.303209	-1.919419	1.806312	2.635060	0.000000	0.245854	0.000000	-0.000016	-0.000002	0.000000	0.000000
67.038346	21.775105	13.653161	-1.340249	1.216651	2.748428	0.000000	0.166488	0.000000	-0.000017	-0.000001	0.000000	0.000000
67.587406	22.883441	12.599530	-0.666410	0.713649	2.817343	0.000000	0.084170	0.000000	-0.000017	-0.000001	0.000000	0.000000
68.136466	23.221416	12.067269	0.054501	0.261478	2.840583	0.000000	0.000359	0.000000	-0.000018	-0.000000	0.000000	0.000000
68.435038	23.228946	11.900320	-0.019039	0.266146	2.842907	0.000000	0.007782	0.000000	-0.000018	-0.000000	0.000000	0.000000
68.768372	23.246424	11.732887	-0.033394	0.236151	2.845501	0.000000	0.007782	0.000000	-0.000018	-0.000000	0.000000	0.000000
69.101705	23.273472	11.585451	-0.047749	0.206157	2.848095	0.000000	0.007782	0.000000	-0.000018	-0.000000	0.000000	0.000000
69.436288	23.310245	11.457571	-0.062158	0.176050	2.850698	0.000000	0.007782	0.000000	-0.000018	-0.000000	0.000000	0.000000
69.733611	23.351014	11.360838	-0.135984	0.178984	2.853012	0.000000	0.015237	0.000000	-0.000018	-0.000000	0.000000	0.000000
70.282671	23.099299	11.391815	0.591718	-0.235735	2.838200	0.000000	-0.069113	0.000000	-0.000018	0.000000	0.000000	0.000000
