#ParticleID	Turn	x[m]	xp	y[m]	yp	z[m]	dE[GeV]# s	beta_x	beta_y	alpha_x	alpha_y	D_x	D_y	D_px	D_py	orbit_x	orbit_px	orbit_y	orbit_py
0.300000	11.823212	24.980421	-0.012159	-0.027613	2.618105	0.000000	0.000015	0.000000	0.000000	0.000001	0.000000	0.000000
0.601250	11.838215	25.000693	-0.037643	-0.039682	2.618109	0.000000	0.000015	0.000000	0.000000	0.000001	0.000000	0.000000
0.898573	11.868077	25.027831	-0.033690	-0.112968	2.618114	0.000000	-0.006405	0.000000	0.000000	0.000001	0.000000	0.000000
1.339533	12.050034	24.849855	-0.380514	0.515044	2.631582	0.000000	0.067552	0.000000	0.000001	0.000001	0.000000	0.000000
1.780493	12.544343	24.126279	-0.744722	1.119621	2.677801	0.000000	0.142279	0.000000	0.000001	0.000001	0.000000	0.000000
2.221453	13.373587	22.890027	-1.142955	1.673257	2.757298	0.000000	0.218626	0.000000	0.000001	0.000001	0.000000	0.000000
2.662413	14.575652	21.197347	-1.593406	2.150761	2.870977	0.000000	0.297463	0.000000	0.000001	0.000001	0.000000	0.000000
3.108373	16.226235	19.100428	-2.120950	2.531538	3.021994	0.000000	0.380178	0.000000	0.000002	0.000001	0.000000	0.000000
3.657433	18.342804	16.745340	-1.711125	1.783090	3.205462	0.000000	0.287140	0.000000	0.000002	0.000001	0.000000	0.000000
4.206493	19.939899	15.137990	-1.180436	1.161648	3.336372	0.000000	0.189008	0.000000	0.000003	0.000001	0.000000	0.000000
4.755553	20.904709	14.163890	-0.566366	0.622947	3.412400	0.000000	0.087525	0.000000	0.000003	0.000000	0.000000	0.000000
5.304613	21.169085	13.753657	0.087710	0.128618	3.432199	0.000000	-0.015511	0.000000	0.000003	0.000000	0.000000	0.000000
5.603185	21.153953	13.662053	0.018281	0.142256	3.430245	0.000000	-0.006544	0.000000	0.000003	0.000000	0.000000	0.000000
5.936519	21.147020	13.575513	0.002518	0.117364	3.428063	0.000000	-0.006544	0.000000	0.000003	0.000000	0.000000	0.000000
6.269852	21.150596	13.505568	-0.013245	0.092472	3.425882	0.000000	-0.006544	0.000000	0.000003	0.000000	0.000000	0.000000
6.604435	21.164752	13.452048	-0.029066	0.067486	3.423692	0.000000	-0.006544	0.000000	0.000004	0.000000	0.000000	0.000000
6.901758	21.186217	13.418520	-0.098480	0.080342	3.421746	0.000000	0.002396	0.000000	0.000004	0.000000	0.000000	0.000000
7.450818	20.933243	13.590938	0.556493	-0.396220	3.394860	0.000000	-0.100187	0.000000	0.000004	0.000000	0.000000	0.000000
7.999878	19.978458	14.299013	1.172158	-0.901005	3.312056	0.000000	-0.200992	0.000000	0.000004	0.000000	0.000000	0.000000
8.548938	18.389304	15.593179	1.705027	-1.469966	3.174801	0.000000	-0.298233	0.000000	0.000004	0.000000	0.000000	0.000000
9.097998	16.278030	17.565616	2.117462	-2.143629	2.985532	0.000000	-0.390183	0.000000	0.000004	-0.000000	0.000000	0.000000
9.543958	14.630786	19.323193	1.589374	-1.780823	2.829833	0.000000	-0.308475	0.000000	0.000004	0.000000	0.000000	0.000000
9.984918	13.432583	20.703821	1.138194	-1.338222	2.711054	0.000000	-0.230765	0.000000	0.000004	0.000000	0.000000	0.000000
10.425878	12.607937	21.665667	0.739014	-0.834733	2.625931	0.000000	-0.155682	0.000000	0.000004	0.000000	0.000000	0.000000
10.866838	12.119174	22.164968	0.373598	-0.293264	2.573495	0.000000	-0.082373	0.000000	0.000004	0.000000	0.000000	0.000000
11.309048	11.943826	22.178489	0.054435	0.207102	2.553127	0.000000	-0.016262	0.000000	0.000004	0.000000	0.000000	0.000000
11.606371	11.918880	22.059493	0.029467	0.193121	2.548291	0.000000	-0.016262	0.000000	0.000005	0.000000	0.000000	0.000000
12.086371	11.909939	21.884931	-0.010840	0.170551	2.540485	0.000000	-0.016262	0.000000	0.000005	0.000000	0.000000	0.000000
12.566371	11.939693	21.732036	-0.051147	0.147980	2.532679	0.000000	-0.016262	0.000000	0.000005	0.000000	0.000000	0.000000
13.046371	12.008141	21.600810	-0.091454	0.125409	2.524873	0.000000	-0.016262	0.000000	0.000005	0.000000	0.000000	0.000000
13.526371	12.115285	21.491252	-0.131761	0.102838	2.517067	0.000000	-0.016262	0.000000	0.000005	0.000000	0.000000	0.000000
14.007621	12.261554	21.403161	-0.172174	0.080208	2.509240	0.000000	-0.016262	0.000000	0.000006	0.000000	0.000000	0.000000
14.304943	12.371359	21.359622	-0.166804	0.013850	2.504405	0.000000	-0.022404	0.000000	0.000006	0.000000	0.000000	0.000000
14.745903	12.677104	21.113609	-0.529188	0.541930	2.510158	0.000000	0.048523	0.000000	0.000006	0.000001	0.000000	0.000000
15.186863	13.311856	20.411007	-0.915749	1.045352	2.547279	0.000000	0.120002	0.000000	0.000006	0.000001	0.000000	0.000000
15.627823	14.304615	19.283785	-1.344148	1.501212	2.616190	0.000000	0.192848	0.000000	0.000007	0.000001	0.000000	0.000000
16.068783	15.700737	17.783229	-1.833958	1.888768	2.717676	0.000000	0.267890	0.000000	0.000007	0.000001	0.000000	0.000000
16.514743	17.587660	15.956111	-2.412313	2.191133	2.854589	0.000000	0.346446	0.000000	0.000008	0.000001	0.000000	0.000000
17.063803	20.011007	13.915887	-1.975187	1.546649	3.021076	0.000000	0.259107	0.000000	0.000008	0.000001	0.000000	0.000000
17.612863	21.874419	12.519099	-1.398543	1.012329	3.138274	0.000000	0.167172	0.000000	0.000009	0.000001	0.000000	0.000000
18.161923	23.046273	11.666257	-0.723114	0.550115	3.204105	0.000000	0.072272	0.000000	0.000009	0.000000	0.000000	0.000000
18.710983	23.443796	11.296615	0.003393	0.127085	3.217402	0.000000	-0.023910	0.000000	0.000009	0.000000	0.000000	0.000000
19.009556	23.482160	11.211188	-0.070635	0.129520	3.212773	0.000000	-0.015504	0.000000	0.000009	0.000000	0.000000	0.000000
19.342889	23.534005	11.134918	-0.084901	0.099289	3.207605	0.000000	-0.015504	0.000000	0.000009	0.000000	0.000000	0.000000
19.676223	23.595361	11.078802	-0.099167	0.069058	3.202437	0.000000	-0.015504	0.000000	0.000009	0.000000	0.000000	0.000000
20.010806	23.666804	11.042607	-0.230745	0.093426	3.197269	0.000000	0.000337	0.000000	0.000009	0.000000	0.000000	0.000000
20.308129	23.807949	10.995127	-0.306177	0.094992	3.197369	0.000000	0.008691	0.000000	0.000009	0.000000	0.000000	0.000000
20.857189	23.733547	11.113198	0.440884	-0.311304	3.175919	0.000000	-0.086710	0.000000	0.000009	-0.000000	0.000000	0.000000
21.406249	22.851097	11.686917	1.156803	-0.739774	3.102434	0.000000	-0.180573	0.000000	0.000009	-0.000000	0.000000	0.000000
21.955309	21.222932	12.757147	1.791011	-1.220936	2.978217	0.000000	-0.271232	0.000000	0.000009	-0.000001	0.000000	0.000000
22.504369	18.964057	14.400119	2.298711	-1.789062	2.805473	0.000000	-0.357081	0.000000	0.000009	-0.000001	0.000000	0.000000
22.950329	17.183940	15.875111	1.707031	-1.504439	2.663524	0.000000	-0.279865	0.000000	0.000008	-0.000001	0.000000	0.000000
23.391289	15.907762	17.051067	1.198037	-1.152221	2.556439	0.000000	-0.206291	0.000000	0.000008	-0.000001	0.000000	0.000000
23.832249	15.054736	17.892002	0.743778	-0.747578	2.481248	0.000000	-0.135066	0.000000	0.000008	-0.000000	0.000000	0.000000
24.273209	14.585887	18.359655	0.323500	-0.308920	2.437095	0.000000	-0.065380	0.000000	0.000008	-0.000000	0.000000	0.000000
24.715418	14.479913	18.432502	-0.046578	0.098525	2.423476	0.000000	-0.002381	0.000000	0.000008	0.000000	0.000000	0.000000
25.012741	14.513729	18.378757	-0.067156	0.082238	2.422768	0.000000	-0.002381	0.000000	0.000008	0.000000	0.000000	0.000000
25.346075	14.566190	18.330018	-0.090227	0.063978	2.421974	0.000000	-0.002381	0.000000	0.000008	0.000000	0.000000	0.000000
25.679408	14.634031	18.293453	-0.113297	0.045719	2.421180	0.000000	-0.002381	0.000000	0.000008	0.000000	0.000000	0.000000
26.013991	14.717295	18.269362	-0.017058	-0.120819	2.420359	0.000000	-0.022017	0.000000	0.000008	-0.000000	0.000000	0.000000
26.311314	14.733447	18.346116	-0.001138	-0.182318	2.413813	0.000000	-0.027936	0.000000	0.000008	-0.000000	0.000000	0.000000
26.752274	14.915988	18.307910	-0.414395	0.268631	2.416606	0.000000	0.040617	0.000000	0.000008	0.000000	0.000000	0.000000
27.193234	15.469928	17.875894	-0.846585	0.707358	2.449701	0.000000	0.109633	0.000000	0.000008	0.000000	0.000000	0.000000
27.634194	16.420577	17.069725	-1.317454	1.113900	2.513476	0.000000	0.179897	0.000000	0.000008	0.000001	0.000000	0.000000
28.075154	17.811365	15.926082	-1.848513	1.469761	2.608656	0.000000	0.252210	0.000000	0.000008	0.000001	0.000000	0.000000
28.521114	19.730001	14.479775	-2.468986	1.759662	2.737929	0.000000	0.327839	0.000000	0.000009	0.000001	0.000000	0.000000
29.070174	22.168600	12.868217	-1.946129	1.192784	2.895264	0.000000	0.244428	0.000000	0.000009	0.000001	0.000000	0.000000
29.619234	23.953695	11.829133	-1.285807	0.710866	3.005543	0.000000	0.156682	0.000000	0.000010	0.000000	0.000000	0.000000
30.168294	24.959194	11.288509	-0.534663	0.279581	3.066809	0.000000	0.066157	0.000000	0.000010	0.000000	0.000000	0.000000
30.717354	25.114076	11.207839	0.254248	-0.131790	3.077975	0.000000	-0.025542	0.000000	0.000010	-0.000000	0.000000	0.000000
31.015927	25.005109	11.277089	0.176323	-0.129428	3.072750	0.000000	-0.017501	0.000000	0.000010	-0.000000	0.000000	0.000000
31.349260	24.892142	11.373392	0.162578	-0.159481	3.066917	0.000000	-0.017501	0.000000	0.000010	-0.000000	0.000000	0.000000
31.682593	24.788338	11.489731	0.148833	-0.189535	3.061083	0.000000	-0.017501	0.000000	0.000010	-0.000000	0.000000	0.000000
32.017177	24.693360	11.626655	0.135037	-0.219701	3.055228	0.000000	-0.017501	0.000000	0.000009	-0.000000	0.000000	0.000000
32.314499	24.616706	11.765269	0.058463	-0.215770	3.050024	0.000000	-0.009532	0.000000	0.000009	-0.000000	0.000000	0.000000
32.863559	24.130781	12.241493	0.821312	-0.656693	3.019905	0.000000	-0.100018	0.000000	0.000009	-0.000000	0.000000	0.000000
33.412619	22.834208	13.224593	1.526148	-1.144391	2.940519	0.000000	-0.188730	0.000000	0.000009	-0.000001	0.000000	0.000000
33.961679	20.818573	14.784594	2.123185	-1.713601	2.813272	0.000000	-0.274095	0.000000	0.000008	-0.000001	0.000000	0.000000
34.510739	18.226249	17.032611	2.570251	-2.404867	2.640424	0.000000	-0.354598	0.000000	0.000008	-0.000001	0.000000	0.000000
34.956699	16.210681	19.043342	1.965559	-2.085075	2.498631	0.000000	-0.281661	0.000000	0.000007	-0.000001	0.000000	0.000000
35.397659	14.707754	20.706019	1.455677	-1.671161	2.389813	0.000000	-0.212360	0.000000	0.000007	-0.000001	0.000000	0.000000
35.838619	13.623587	21.968605	1.012300	-1.181210	2.310993	0.000000	-0.145478	0.000000	0.000006	-0.000001	0.000000	0.000000
36.279579	12.908649	22.773654	0.615172	-0.637515	2.261271	0.000000	-0.080252	0.000000	0.000006	-0.000001	0.000000	0.000000
36.721789	12.529583	23.084839	0.276769	-0.121476	2.240056	0.000000	-0.021434	0.000000	0.000006	-0.000000	0.000000	0.000000
37.019112	12.372600	23.160960	0.251222	-0.134545	2.233684	0.000000	-0.021434	0.000000	0.000006	-0.000000	0.000000	0.000000
37.352445	12.214666	23.255541	0.222580	-0.149198	2.226539	0.000000	-0.021434	0.000000	0.000006	-0.000000	0.000000	0.000000
37.685779	12.075826	23.359891	0.193939	-0.163851	2.219394	0.000000	-0.021434	0.000000	0.000005	-0.000000	0.000000	0.000000
38.020362	11.955668	23.474455	0.165190	-0.178558	2.212223	0.000000	-0.021434	0.000000	0.000005	-0.000000	0.000000	0.000000
38.317684	11.865034	23.584520	0.168737	-0.249461	2.205850	0.000000	-0.026843	0.000000	0.000005	-0.000000	0.000000	0.000000
38.758644	11.867529	23.543308	-0.174416	0.342565	2.207942	0.000000	0.036339	0.000000	0.000005	-0.000000	0.000000	0.000000
39.199604	12.175015	22.984881	-0.525539	0.919004	2.237960	0.000000	0.099936	0.000000	0.000005	-0.000000	0.000000	0.000000
39.640564	12.801540	21.934648	-0.900672	1.453630	2.296245	0.000000	0.164671	0.000000	0.000005	-0.000000	0.000000	0.000000
40.081524	13.775729	20.440392	-1.316954	1.922117	2.383461	0.000000	0.231281	0.000000	0.000005	0.000000	0.000000	0.000000
40.527484	15.159658	18.547534	-1.797229	2.304429	2.502074	0.000000	0.300931	0.000000	0.000005	0.000000	0.000000	0.000000
41.076544	16.925845	16.420495	-1.400476	1.592404	2.646772	0.000000	0.225367	0.000000	0.000005	0.000000	0.000000	0.000000
41.625604	18.199118	15.008846	-0.904801	0.993802	2.748820	0.000000	0.145805	0.000000	0.000005	-0.000000	0.000000	0.000000
42.174664	18.889539	14.212038	-0.345215	0.465986	2.806408	0.000000	0.063657	0.000000	0.000005	-0.000000	0.000000	0.000000
42.723724	18.948339	13.973317	0.238756	-0.028639	2.818516	0.000000	-0.019619	0.000000	0.000005	-0.000000	0.000000	0.000000
43.022297	18.840203	13.974998	0.172928	-0.013499	2.814857	0.000000	-0.012255	0.000000	0.000004	-0.000000	0.000000	0.000000
43.502297	18.686787	14.004446	0.146688	-0.047852	2.808975	0.000000	-0.012255	0.000000	0.000004	-0.000000	0.000000	0.000000
43.982297	18.558561	14.066874	0.120449	-0.082206	2.803093	0.000000	-0.012255	0.000000	0.000004	-0.000000	0.000000	0.000000
44.462297	18.455525	14.162281	0.094210	-0.116559	2.797210	0.000000	-0.012255	0.000000	0.000004	-0.000000	0.000000	0.000000
44.942297	18.377678	14.290667	0.067970	-0.150912	2.791328	0.000000	-0.012255	0.000000	0.000004	-0.000000	0.000000	0.000000
45.423547	18.325144	14.452316	-0.049130	-0.113749	2.785448	0.000000	0.001545	0.000000	0.000003	-0.000000	0.000000	0.000000
45.720870	18.359195	14.526153	-0.113362	-0.096635	2.785907	0.000000	0.008824	0.000000	0.000003	-0.000000	0.000000	0.000000
46.269930	18.174542	14.913263	0.447678	-0.612568	2.768180	0.000000	-0.073305	0.000000	0.000003	-0.000001	0.000000	0.000000
46.818990	17.387598	15.887420	0.977096	-1.172132	2.705649	0.000000	-0.154134	0.000000	0.000003	-0.000001	0.000000	0.000000
47.368050	16.053947	17.518011	1.437496	-1.815185	2.599425	0.000000	-0.232229	0.000000	0.000002	-0.000001	0.000000	0.000000
47.917110	14.267792	19.921180	1.796360	-2.587529	2.451391	0.000000	-0.306205	0.000000	0.000002	-0.000001	0.000000	0.000000
48.363070	12.877746	22.057865	1.331660	-2.183532	2.330129	0.000000	-0.237904	0.000000	0.000002	-0.000001	0.000000	0.000000
48.804030	11.883524	23.768681	0.931568	-1.681456	2.239683	0.000000	-0.172710	0.000000	0.000001	-0.000001	0.000000	0.000000
49.244990	11.222122	25.001150	0.574037	-1.102876	2.177525	0.000000	-0.109484	0.000000	0.000001	-0.000001	0.000000	0.000000
49.685950	10.863321	25.699196	0.242732	-0.474116	2.142945	0.000000	-0.047504	0.000000	0.000001	-0.000001	0.000000	0.000000
50.128160	10.790856	25.830777	-0.051138	0.112823	2.135562	0.000000	0.008698	0.000000	0.000000	-0.000001	0.000000	0.000000
50.425482	10.829478	25.767154	-0.078763	0.101166	2.138148	0.000000	0.008698	0.000000	0.000000	-0.000001	0.000000	0.000000
50.758816	10.892311	25.704066	-0.109734	0.088097	2.141048	0.000000	0.008698	0.000000	0.000000	-0.000001	0.000000	0.000000
51.092149	10.975790	25.649691	-0.140705	0.075028	2.143947	0.000000	0.008698	0.000000	-0.000000	-0.000001	0.000000	0.000000
51.426732	11.080122	25.604393	-0.081903	-0.145805	2.146836	0.000000	-0.008719	0.000000	-0.000000	-0.000001	0.000000	0.000000
51.724055	11.136857	25.694621	-0.081606	-0.220675	2.144244	0.000000	-0.013977	0.000000	-0.000001	-0.000001	0.000000	0.000000
52.165015	11.354220	25.603395	-0.413194	0.426769	2.151669	0.000000	0.047686	0.000000	-0.000001	-0.000001	0.000000	0.000000
52.605975	11.871204	24.947588	-0.763659	1.054796	2.186379	0.000000	0.109892	0.000000	-0.000001	-0.000001	0.000000	0.000000
53.046935	12.711428	23.757040	-1.149014	1.634830	2.248769	0.000000	0.173350	0.000000	-0.000001	-0.000001	0.000000	0.000000
53.487895	13.913281	22.085920	-1.586864	2.140481	2.339550	0.000000	0.238782	0.000000	-0.000002	-0.000001	0.000000	0.000000
53.933855	15.552272	19.985275	-2.101447	2.550077	2.461260	0.000000	0.307333	0.000000	-0.000002	-0.000001	0.000000	0.000000
54.482915	17.662391	17.621566	-1.718953	1.780345	2.609825	0.000000	0.233029	0.000000	-0.000002	-0.000001	0.000000	0.000000
55.031975	19.282923	16.028937	-1.215042	1.137423	2.716395	0.000000	0.154591	0.000000	-0.000003	-0.000001	0.000000	0.000000
55.581035	20.299401	15.093950	-0.625305	0.575517	2.779082	0.000000	0.073412	0.000000	-0.000003	-0.000001	0.000000	0.000000
56.130095	20.640026	14.750006	0.008599	0.054604	2.796772	0.000000	-0.009070	0.000000	-0.000003	-0.000000	0.000000	0.000000
56.428668	20.671423	14.700482	-0.059826	0.072726	2.796246	0.000000	-0.001762	0.000000	-0.000003	-0.000000	0.000000	0.000000
56.762001	20.716702	14.659596	-0.076009	0.049931	2.795658	0.000000	-0.001762	0.000000	-0.000004	-0.000000	0.000000	0.000000
57.095334	20.772769	14.633907	-0.092192	0.027136	2.795071	0.000000	-0.001762	0.000000	-0.000004	-0.000000	0.000000	0.000000
57.429918	20.839896	14.623404	-0.108436	0.004256	2.794482	0.000000	-0.001762	0.000000	-0.000004	-0.000000	0.000000	0.000000
57.727240	20.908669	14.626919	-0.177503	0.022142	2.793958	0.000000	0.005538	0.000000	-0.000004	-0.000000	0.000000	0.000000
58.276300	20.746851	14.883519	0.470478	-0.492246	2.774360	0.000000	-0.076822	0.000000	-0.000004	-0.000000	0.000000	0.000000
58.825360	19.887589	15.720803	1.085226	-1.041695	2.709849	0.000000	-0.157819	0.000000	-0.000004	-0.000000	0.000000	0.000000
59.374420	18.391579	17.198406	1.623320	-1.665342	2.601570	0.000000	-0.236016	0.000000	-0.000004	-0.000000	0.000000	0.000000
59.923480	16.364491	19.421577	2.046750	-2.407608	2.451443	0.000000	-0.310028	0.000000	-0.000004	0.000000	0.000000	0.000000
60.369440	14.777857	21.397591	1.523643	-2.004612	2.328473	0.000000	-0.241748	0.000000	-0.000004	0.000000	0.000000	0.000000
60.810400	13.636574	22.954102	1.074355	-1.511780	2.236319	0.000000	-0.176619	0.000000	-0.000004	-0.000000	0.000000	0.000000
61.251360	12.868466	24.043868	0.674151	-0.950164	2.172414	0.000000	-0.113502	0.000000	-0.000004	-0.000000	0.000000	0.000000
61.692320	12.438442	24.617304	0.304748	-0.345315	2.136030	0.000000	-0.051677	0.000000	-0.000005	-0.000000	0.000000	0.000000
62.134530	12.326906	24.647784	-0.020604	0.214744	2.126758	0.000000	0.004343	0.000000	-0.000005	-0.000000	0.000000	0.000000
62.431853	12.346333	24.523839	-0.044734	0.202125	2.128050	0.000000	0.004343	0.000000	-0.000005	-0.000000	0.000000	0.000000
62.765186	12.385173	24.393805	-0.071786	0.187977	2.129497	0.000000	0.004343	0.000000	-0.000005	-0.000000	0.000000	0.000000
63.098520	12.442048	24.273202	-0.098839	0.173830	2.130945	0.000000	0.004343	0.000000	-0.000005	-0.000000	0.000000	0.000000
63.433103	12.517273	24.161632	-0.125993	0.159629	2.132399	0.000000	0.004343	0.000000	-0.000005	-0.000000	0.000000	0.000000
63.730426	12.599369	24.070462	-0.119224	0.087979	2.133690	0.000000	-0.000889	0.000000	-0.000005	-0.000000	0.000000	0.000000
64.171386	12.864933	23.727774	-0.485302	0.686205	2.146837	0.000000	0.060575	0.000000	-0.000006	-0.000001	0.000000	0.000000
64.612346	13.461868	22.869303	-0.873551	1.253208	2.187214	0.000000	0.122730	0.000000	-0.000006	-0.000001	0.000000	0.000000
65.053306	14.417445	21.534111	-1.301710	1.763192	2.255281	0.000000	0.186283	0.000000	-0.000006	-0.000001	0.000000	0.000000
65.494266	15.775324	19.782947	-1.789341	2.192951	2.351813	0.000000	0.251957	0.000000	-0.000007	-0.000001	0.000000	0.000000
65.940226	17.620705	17.670702	-2.363415	2.523689	2.479481	0.000000	0.320903	0.000000	-0.000007	-0.000001	0.000000	0.000000
66.489286	19.986216	15.307711	-1.919374	1.805416	2.635312	0.000000	0.245890	0.000000	-0.000008	-0.000001	0.000000	0.000000
67.038346	21.786330	13.658650	-1.339758	1.215739	2.748698	0.000000	0.166517	0.000000	-0.000008	-0.000001	0.000000	0.000000
67.587406	22.893898	12.606058	-0.665509	0.712657	2.817626	0.000000	0.084189	0.000000	-0.000009	-0.000000	0.000000	0.000000
68.136466	23.230687	12.074962	0.055749	0.260335	2.840874	0.000000	0.000369	0.000000	-0.000009	-0.000000	0.000000	0.000000
68.435038	23.237482	11.908675	-0.017806	0.265053	2.843200	0.000000	0.007792	0.000000	-0.000009	-0.000000	0.000000	0.000000
68.768372	23.254136	11.741959	-0.032155	0.235096	2.845798	0.000000	0.007792	0.000000	-0.000009	-0.000000	0.000000	0.000000
69.101705	23.280355	11.595214	-0.046504	0.205139	2.848395	0.000000	0.007792	0.000000	-0.000009	-0.000000	0.000000	0.000000
69.436288	23.316294	11.468002	-0.060907	0.175069	2.851002	0.000000	0.007792	0.000000	-0.000009	-0.000000	0.000000	0.000000
69.733611	23.356317	11.371843	-0.134737	0.178063	2.853319	0.000000	0.015248	0.000000	-0.000009	-0.000000	0.000000	0.000000
70.282671	23.103148	11.404004	0.593104	-0.236983	2.838510	0.000000	-0.069113	0.000000	-0.000009	0.000000	0.000000	0.000000
