#ParticleID	Turn	x[m]	xp	y[m]	yp	z[m]	dE[GeV]# s	beta_x	beta_y	alpha_x	alpha_y	D_x	D_y	D_px	D_py	orbit_x	orbit_px	orbit_y	orbit_py
0.300000	11.820449	24.991563	-0.011799	-0.027533	2.618068	0.000000	0.000030	0.000000	0.000000	0.000001	0.000000	0.000000
0.601250	11.835236	25.011785	-0.037288	-0.039597	2.618077	0.000000	0.000030	0.000000	0.000000	0.000001	0.000000	0.000000
0.898573	11.864888	25.038871	-0.033348	-0.112905	2.618086	0.000000	-0.006391	0.000000	0.000001	0.000001	0.000000	0.000000
1.339533	12.046510	24.860710	-0.380091	0.515397	2.631560	0.000000	0.067566	0.000000	0.000001	0.000001	0.000000	0.000000
1.780493	12.540402	24.136700	-0.744198	1.120249	2.677786	0.000000	0.142292	0.000000	0.000001	0.000001	0.000000	0.000000
2.221453	13.369132	22.899784	-1.142306	1.674131	2.757288	0.000000	0.218639	0.000000	0.000001	0.000001	0.000000	0.000000
2.662413	14.570560	21.206239	-1.592603	2.151840	2.870972	0.000000	0.297476	0.000000	0.000002	0.000001	0.000000	0.000000
3.108373	16.220343	19.108283	-2.119955	2.532775	3.021996	0.000000	0.380191	0.000000	0.000002	0.000001	0.000000	0.000000
3.657433	18.335895	16.752012	-1.710279	1.784021	3.205471	0.000000	0.287152	0.000000	0.000003	0.000001	0.000000	0.000000
4.206493	19.932170	15.143776	-1.179798	1.162339	3.336387	0.000000	0.189021	0.000000	0.000003	0.000001	0.000000	0.000000
4.755553	20.896417	14.169025	-0.565982	0.623449	3.412422	0.000000	0.087536	0.000000	0.000003	0.000001	0.000000	0.000000
5.304613	21.160524	13.758329	0.087812	0.128965	3.432227	0.000000	-0.015500	0.000000	0.000004	0.000000	0.000000	0.000000
5.603185	21.145319	13.666508	0.018400	0.142620	3.430276	0.000000	-0.006533	0.000000	0.000004	0.000000	0.000000	0.000000
5.936519	21.138309	13.579724	0.002631	0.117733	3.428099	0.000000	-0.006533	0.000000	0.000004	0.000000	0.000000	0.000000
6.269852	21.141811	13.509531	-0.013138	0.092847	3.425921	0.000000	-0.006533	0.000000	0.000004	0.000000	0.000000	0.000000
6.604435	21.155899	13.455758	-0.028967	0.067867	3.423735	0.000000	-0.006533	0.000000	0.000004	0.000000	0.000000	0.000000
6.901758	21.177305	13.422002	-0.098363	0.080737	3.421792	0.000000	0.002407	0.000000	0.000004	0.000000	0.000000	0.000000
7.450818	20.924367	13.594039	0.556311	-0.395917	3.394912	0.000000	-0.100177	0.000000	0.000004	0.000000	0.000000	0.000000
7.999878	19.969942	14.301821	1.171689	-0.900771	3.312112	0.000000	-0.200984	0.000000	0.000005	0.000000	0.000000	0.000000
8.548938	18.381444	15.595761	1.704306	-1.469785	3.174861	0.000000	-0.298227	0.000000	0.000005	0.000000	0.000000	0.000000
9.097998	16.271079	17.568023	2.116538	-2.143489	2.985594	0.000000	-0.390179	0.000000	0.000005	-0.000000	0.000000	0.000000
9.543958	14.624566	19.325433	1.588654	-1.780589	2.829897	0.000000	-0.308470	0.000000	0.000005	-0.000000	0.000000	0.000000
9.984918	13.426921	20.705817	1.137643	-1.337906	2.711122	0.000000	-0.230757	0.000000	0.000005	0.000000	0.000000	0.000000
10.425878	12.602697	21.667354	0.738607	-0.834349	2.626002	0.000000	-0.155673	0.000000	0.000005	0.000000	0.000000	0.000000
10.866838	12.114236	22.166293	0.373317	-0.292830	2.573570	0.000000	-0.082362	0.000000	0.000005	0.000000	0.000000	0.000000
11.309048	11.939087	22.179416	0.054254	0.207564	2.553208	0.000000	-0.016250	0.000000	0.000005	0.000000	0.000000	0.000000
11.606371	11.914251	22.060146	0.029277	0.193582	2.548376	0.000000	-0.016250	0.000000	0.000005	0.000000	0.000000	0.000000
12.086371	11.905500	21.885143	-0.011045	0.171007	2.540576	0.000000	-0.016250	0.000000	0.000005	0.000000	0.000000	0.000000
12.566371	11.935458	21.731812	-0.051368	0.148433	2.532776	0.000000	-0.016250	0.000000	0.000006	0.000000	0.000000	0.000000
13.046371	12.004125	21.600151	-0.091690	0.125859	2.524976	0.000000	-0.016250	0.000000	0.000006	0.000000	0.000000	0.000000
13.526371	12.111503	21.490162	-0.132012	0.103285	2.517176	0.000000	-0.016250	0.000000	0.000006	0.000000	0.000000	0.000000
14.007621	12.258020	21.401642	-0.172440	0.080652	2.509355	0.000000	-0.016250	0.000000	0.000006	0.000000	0.000000	0.000000
14.304943	12.367987	21.357840	-0.167088	0.014297	2.504524	0.000000	-0.022391	0.000000	0.000006	0.000000	0.000000	0.000000
14.745903	12.673952	21.111457	-0.529405	0.542319	2.510283	0.000000	0.048538	0.000000	0.000007	0.000001	0.000000	0.000000
15.186863	13.308868	20.408544	-0.915908	1.045666	2.547411	0.000000	0.120021	0.000000	0.000007	0.000001	0.000000	0.000000
15.627823	14.301744	19.281084	-1.344256	1.501435	2.616332	0.000000	0.192870	0.000000	0.000007	0.000001	0.000000	0.000000
16.068783	15.697941	17.780375	-1.834020	1.888891	2.717829	0.000000	0.267916	0.000000	0.000008	0.000001	0.000000	0.000000
16.514743	17.584901	15.953194	-2.412333	2.191150	2.854754	0.000000	0.346476	0.000000	0.000008	0.000001	0.000000	0.000000
17.063803	20.008337	13.912921	-1.975330	1.546722	3.021256	0.000000	0.259132	0.000000	0.000009	0.000001	0.000000	0.000000
17.612863	21.871969	12.516020	-1.398800	1.012464	3.138466	0.000000	0.167191	0.000000	0.000010	0.000001	0.000000	0.000000
18.161923	23.044159	11.662992	-0.723465	0.550321	3.204306	0.000000	0.072285	0.000000	0.000010	0.000000	0.000000	0.000000
18.710983	23.442109	11.293079	0.002972	0.127376	3.217608	0.000000	-0.023904	0.000000	0.000010	0.000000	0.000000	0.000000
19.009556	23.480723	11.207487	-0.071053	0.129791	3.212980	0.000000	-0.015498	0.000000	0.000010	0.000000	0.000000	0.000000
19.342889	23.532847	11.131040	-0.085321	0.099548	3.207815	0.000000	-0.015498	0.000000	0.000010	0.000000	0.000000	0.000000
19.676223	23.594484	11.074756	-0.099589	0.069305	3.202649	0.000000	-0.015498	0.000000	0.000010	0.000000	0.000000	0.000000
20.010806	23.666210	11.038399	-0.231165	0.093640	3.197483	0.000000	0.000345	0.000000	0.000010	0.000000	0.000000	0.000000
20.308129	23.807606	10.990796	-0.306599	0.095183	3.197586	0.000000	0.008699	0.000000	0.000010	0.000000	0.000000	0.000000
20.857189	23.733671	11.108590	0.440459	-0.310987	3.176138	0.000000	-0.086709	0.000000	0.000010	-0.000000	0.000000	0.000000
21.406249	22.851675	11.681881	1.156406	-0.739308	3.102651	0.000000	-0.180579	0.000000	0.000010	-0.000000	0.000000	0.000000
21.955309	21.223917	12.751503	1.790670	-1.220288	2.978429	0.000000	-0.271246	0.000000	0.000010	-0.000001	0.000000	0.000000
22.504369	18.965375	14.393643	2.298450	-1.788187	2.805675	0.000000	-0.357101	0.000000	0.000009	-0.000001	0.000000	0.000000
22.950329	17.185491	15.867918	1.706768	-1.503712	2.663719	0.000000	-0.279880	0.000000	0.000009	-0.000001	0.000000	0.000000
23.391289	15.909550	17.043311	1.197760	-1.151676	2.556628	0.000000	-0.206301	0.000000	0.000009	-0.000001	0.000000	0.000000
23.832249	15.056778	17.883856	0.743474	-0.747240	2.481434	0.000000	-0.135071	0.000000	0.000009	-0.000000	0.000000	0.000000
24.273209	14.588215	18.351308	0.323156	-0.308805	2.437281	0.000000	-0.065380	0.000000	0.000008	-0.000000	0.000000	0.000000
24.715418	14.482569	18.424153	-0.046972	0.098434	2.423662	0.000000	-0.002377	0.000000	0.000008	0.000000	0.000000	0.000000
25.012741	14.516618	18.370464	-0.067547	0.082140	2.422955	0.000000	-0.002377	0.000000	0.000008	0.000000	0.000000	0.000000
25.346075	14.569339	18.321794	-0.090614	0.063873	2.422163	0.000000	-0.002377	0.000000	0.000008	0.000000	0.000000	0.000000
25.679408	14.637437	18.285301	-0.113681	0.045605	2.421370	0.000000	-0.002377	0.000000	0.000008	0.000000	0.000000	0.000000
26.013991	14.720957	18.261289	-0.017409	-0.120875	2.420551	0.000000	-0.022014	0.000000	0.000008	-0.000000	0.000000	0.000000
26.311314	14.737316	18.338079	-0.001475	-0.182362	2.414005	0.000000	-0.027934	0.000000	0.000008	-0.000000	0.000000	0.000000
26.752274	14.920197	18.300007	-0.414833	0.268371	2.416801	0.000000	0.040624	0.000000	0.000008	0.000000	0.000000	0.000000
27.193234	15.474575	17.868312	-0.847143	0.706892	2.449900	0.000000	0.109645	0.000000	0.000009	0.000000	0.000000	0.000000
27.634194	16.425778	17.062636	-1.318158	1.113251	2.513682	0.000000	0.179914	0.000000	0.000009	0.000001	0.000000	0.000000
28.075154	17.817264	15.919636	-1.849395	1.468958	2.608870	0.000000	0.252233	0.000000	0.000009	0.000001	0.000000	0.000000
28.521114	19.736781	14.474101	-2.470088	1.758741	2.738155	0.000000	0.327867	0.000000	0.000010	0.000001	0.000000	0.000000
29.070174	22.176503	12.863432	-1.947058	1.192078	2.895504	0.000000	0.244449	0.000000	0.000010	0.000001	0.000000	0.000000
29.619234	23.962492	11.825028	-1.286498	0.710325	3.005792	0.000000	0.156695	0.000000	0.000010	0.000000	0.000000	0.000000
30.168294	24.968595	11.284926	-0.535066	0.279166	3.067063	0.000000	0.066162	0.000000	0.000011	0.000000	0.000000	0.000000
30.717354	25.123747	11.204657	0.254161	-0.132108	3.078230	0.000000	-0.025545	0.000000	0.000011	-0.000000	0.000000	0.000000
31.015927	25.014846	11.274105	0.176217	-0.129764	3.073004	0.000000	-0.017503	0.000000	0.000010	-0.000000	0.000000	0.000000
31.349260	24.901948	11.370636	0.162477	-0.159828	3.067170	0.000000	-0.017503	0.000000	0.000010	-0.000000	0.000000	0.000000
31.682593	24.798209	11.487209	0.148738	-0.189892	3.061335	0.000000	-0.017503	0.000000	0.000010	-0.000000	0.000000	0.000000
32.017177	24.703293	11.624376	0.134948	-0.220069	3.055479	0.000000	-0.017503	0.000000	0.000010	-0.000000	0.000000	0.000000
32.314499	24.626691	11.763212	0.058353	-0.216153	3.050275	0.000000	-0.009534	0.000000	0.000010	-0.000000	0.000000	0.000000
32.863559	24.140702	12.239833	0.821535	-0.657039	3.020153	0.000000	-0.100028	0.000000	0.000010	-0.000001	0.000000	0.000000
33.412619	22.843709	13.223305	1.526688	-1.144724	2.940758	0.000000	-0.188748	0.000000	0.000010	-0.000001	0.000000	0.000000
33.961679	20.827324	14.783676	2.124003	-1.713946	2.813500	0.000000	-0.274120	0.000000	0.000009	-0.000001	0.000000	0.000000
34.510739	18.233974	17.032089	2.571289	-2.405248	2.640635	0.000000	-0.354630	0.000000	0.000008	-0.000001	0.000000	0.000000
34.956699	16.217585	19.043187	1.966368	-2.085514	2.498829	0.000000	-0.281688	0.000000	0.000008	-0.000001	0.000000	0.000000
35.397659	14.714032	20.706268	1.456294	-1.671636	2.390001	0.000000	-0.212382	0.000000	0.000007	-0.000001	0.000000	0.000000
35.838619	13.629395	21.969282	1.012754	-1.181701	2.311172	0.000000	-0.145495	0.000000	0.000007	-0.000001	0.000000	0.000000
36.279579	12.914120	22.774763	0.615484	-0.637999	2.261443	0.000000	-0.080265	0.000000	0.000007	-0.000001	0.000000	0.000000
36.721789	12.534837	23.086366	0.276965	-0.121934	2.240224	0.000000	-0.021443	0.000000	0.000006	-0.000000	0.000000	0.000000
37.019112	12.377734	23.162759	0.251426	-0.135005	2.233848	0.000000	-0.021443	0.000000	0.000006	-0.000000	0.000000	0.000000
37.352445	12.219661	23.257647	0.222793	-0.149658	2.226701	0.000000	-0.021443	0.000000	0.000006	-0.000000	0.000000	0.000000
37.685779	12.080676	23.362303	0.194161	-0.164311	2.219553	0.000000	-0.021443	0.000000	0.000006	-0.000000	0.000000	0.000000
38.020362	11.960366	23.477175	0.165421	-0.179019	2.212379	0.000000	-0.021443	0.000000	0.000006	-0.000000	0.000000	0.000000
38.317684	11.869592	23.587514	0.168988	-0.249930	2.206003	0.000000	-0.026853	0.000000	0.000006	-0.000001	0.000000	0.000000
38.758644	11.871911	23.546680	-0.174267	0.342182	2.208092	0.000000	0.036334	0.000000	0.000005	-0.000000	0.000000	0.000000
39.199604	12.179307	22.988546	-0.525484	0.918725	2.238108	0.000000	0.099934	0.000000	0.000005	-0.000000	0.000000	0.000000
39.640564	12.805824	21.938509	-0.900709	1.453466	2.296393	0.000000	0.164673	0.000000	0.000005	-0.000000	0.000000	0.000000
40.081524	13.780086	20.444344	-1.317084	1.922076	2.383611	0.000000	0.231287	0.000000	0.000005	0.000000	0.000000	0.000000
40.527484	15.164175	18.551466	-1.797459	2.304514	2.502228	0.000000	0.300940	0.000000	0.000005	0.000000	0.000000	0.000000
41.076544	16.930524	16.424386	-1.400538	1.592392	2.646929	0.000000	0.225371	0.000000	0.000005	-0.000000	0.000000	0.000000
41.625604	18.203770	15.012802	-0.904690	0.993692	2.748978	0.000000	0.145805	0.000000	0.000005	-0.000000	0.000000	0.000000
42.174664	18.893978	14.216171	-0.344939	0.465771	2.806566	0.000000	0.063652	0.000000	0.000005	-0.000000	0.000000	0.000000
42.723724	18.952394	13.977751	0.239176	-0.028974	2.818669	0.000000	-0.019630	0.000000	0.000005	-0.000000	0.000000	0.000000
43.022297	18.844013	13.979623	0.173339	-0.013816	2.815007	0.000000	-0.012265	0.000000	0.000005	-0.000000	0.000000	0.000000
43.502297	18.690202	14.009371	0.147101	-0.048158	2.809120	0.000000	-0.012265	0.000000	0.000004	-0.000000	0.000000	0.000000
43.982297	18.561579	14.072087	0.120863	-0.082500	2.803233	0.000000	-0.012265	0.000000	0.000004	-0.000000	0.000000	0.000000
44.462297	18.458144	14.167772	0.094626	-0.116843	2.797346	0.000000	-0.012265	0.000000	0.000004	-0.000000	0.000000	0.000000
44.942297	18.379897	14.296425	0.068388	-0.151185	2.791459	0.000000	-0.012265	0.000000	0.000004	-0.000000	0.000000	0.000000
45.423547	18.326961	14.458332	-0.048720	-0.113981	2.785573	0.000000	0.001536	0.000000	0.000004	-0.000000	0.000000	0.000000
45.720870	18.360767	14.532303	-0.112954	-0.096843	2.786030	0.000000	0.008815	0.000000	0.000003	-0.000000	0.000000	0.000000
46.269930	18.175640	14.919746	0.448127	-0.612969	2.768297	0.000000	-0.073318	0.000000	0.000003	-0.000001	0.000000	0.000000
46.818990	17.388194	15.894463	0.977555	-1.172756	2.705758	0.000000	-0.154150	0.000000	0.000003	-0.000001	0.000000	0.000000
47.368050	16.054049	17.525880	1.437932	-1.816075	2.599524	0.000000	-0.232249	0.000000	0.000002	-0.000001	0.000000	0.000000
47.917110	14.267443	19.930201	1.796742	-2.588749	2.451478	0.000000	-0.306228	0.000000	0.000002	-0.000001	0.000000	0.000000
48.363070	12.877069	22.067889	1.332013	-2.184553	2.330207	0.000000	-0.237925	0.000000	0.000002	-0.000001	0.000000	0.000000
48.804030	11.882542	23.779500	0.931910	-1.682233	2.239752	0.000000	-0.172729	0.000000	0.000001	-0.000001	0.000000	0.000000
49.244990	11.220838	25.012533	0.574382	-1.103373	2.177585	0.000000	-0.109501	0.000000	0.000001	-0.000001	0.000000	0.000000
49.685950	10.861725	25.710885	0.243097	-0.474310	2.142998	0.000000	-0.047520	0.000000	0.000001	-0.000001	0.000000	0.000000
50.128160	10.788922	25.842501	-0.050741	0.112911	2.135608	0.000000	0.008683	0.000000	0.000000	-0.000001	0.000000	0.000000
50.425482	10.827310	25.778823	-0.078370	0.101259	2.138190	0.000000	0.008683	0.000000	0.000000	-0.000001	0.000000	0.000000
50.758816	10.889882	25.715672	-0.109346	0.088196	2.141085	0.000000	0.008683	0.000000	-0.000000	-0.000001	0.000000	0.000000
51.092149	10.973104	25.661229	-0.140321	0.075133	2.143979	0.000000	0.008683	0.000000	-0.000000	-0.000001	0.000000	0.000000
51.426732	11.077180	25.615859	-0.081547	-0.145788	2.146863	0.000000	-0.008734	0.000000	-0.000001	-0.000001	0.000000	0.000000
51.724055	11.133705	25.706076	-0.081264	-0.220681	2.144266	0.000000	-0.013992	0.000000	-0.000001	-0.000001	0.000000	0.000000
52.165015	11.350731	25.614721	-0.412771	0.427066	2.151685	0.000000	0.047672	0.000000	-0.000001	-0.000001	0.000000	0.000000
52.605975	11.867299	24.958524	-0.763136	1.055381	2.186389	0.000000	0.109878	0.000000	-0.000001	-0.000001	0.000000	0.000000
53.046935	12.707010	23.767342	-1.148367	1.635678	2.248773	0.000000	0.173336	0.000000	-0.000002	-0.000001	0.000000	0.000000
53.487895	13.908227	22.095372	-1.586063	2.141552	2.339548	0.000000	0.238769	0.000000	-0.000002	-0.000001	0.000000	0.000000
53.933855	15.546421	19.993688	-2.100455	2.551324	2.461252	0.000000	0.307319	0.000000	-0.000002	-0.000001	0.000000	0.000000
54.482915	17.655526	17.628792	-1.718109	1.781273	2.609809	0.000000	0.233015	0.000000	-0.000003	-0.000001	0.000000	0.000000
55.031975	19.275239	16.035289	-1.214404	1.138098	2.716372	0.000000	0.154578	0.000000	-0.000003	-0.000001	0.000000	0.000000
55.581035	20.291153	15.099677	-0.624921	0.575987	2.779052	0.000000	0.073400	0.000000	-0.000004	-0.000001	0.000000	0.000000
56.130095	20.631507	14.755313	0.008704	0.054902	2.796735	0.000000	-0.009081	0.000000	-0.000004	-0.000000	0.000000	0.000000
56.428668	20.662830	14.705601	-0.059705	0.073045	2.796206	0.000000	-0.001774	0.000000	-0.000004	-0.000000	0.000000	0.000000
56.762001	20.708030	14.664500	-0.075895	0.050257	2.795615	0.000000	-0.001774	0.000000	-0.000004	-0.000000	0.000000	0.000000
57.095334	20.764023	14.638592	-0.092084	0.027469	2.795024	0.000000	-0.001774	0.000000	-0.000004	-0.000000	0.000000	0.000000
57.429918	20.831079	14.627864	-0.108334	0.004595	2.794431	0.000000	-0.001774	0.000000	-0.000004	-0.000000	0.000000	0.000000
57.727240	20.899793	14.631175	-0.177384	0.022499	2.793903	0.000000	0.005527	0.000000	-0.000005	-0.000000	0.000000	0.000000
58.276300	20.738008	14.887449	0.470298	-0.492005	2.774300	0.000000	-0.076831	0.000000	-0.000005	-0.000000	0.000000	0.000000
58.825360	19.879102	15.724523	1.084761	-1.041552	2.709784	0.000000	-0.157826	0.000000	-0.000005	-0.000000	0.000000	0.000000
59.374420	18.383746	17.202019	1.622602	-1.665288	2.601502	0.000000	-0.236022	0.000000	-0.000005	-0.000000	0.000000	0.000000
59.923480	16.357562	19.425176	2.045831	-2.407638	2.451373	0.000000	-0.310031	0.000000	-0.000005	0.000000	0.000000	0.000000
60.369440	14.771655	21.401164	1.522926	-2.004523	2.328401	0.000000	-0.241753	0.000000	-0.000005	0.000000	0.000000	0.000000
60.810400	13.630927	22.957546	1.073807	-1.511577	2.236244	0.000000	-0.176626	0.000000	-0.000005	-0.000000	0.000000	0.000000
61.251360	12.863238	24.047085	0.673747	-0.949855	2.172336	0.000000	-0.113511	0.000000	-0.000005	-0.000000	0.000000	0.000000
61.692320	12.433514	24.620208	0.304468	-0.344916	2.135947	0.000000	-0.051688	0.000000	-0.000005	-0.000000	0.000000	0.000000
62.134530	12.322175	24.650301	-0.020782	0.215210	2.126670	0.000000	0.004330	0.000000	-0.000005	-0.000000	0.000000	0.000000
62.431853	12.341710	24.526079	-0.044922	0.202589	2.127958	0.000000	0.004330	0.000000	-0.000005	-0.000000	0.000000	0.000000
62.765186	12.380679	24.395736	-0.071985	0.188441	2.129402	0.000000	0.004330	0.000000	-0.000006	-0.000000	0.000000	0.000000
63.098520	12.437690	24.274825	-0.099048	0.174292	2.130845	0.000000	0.004330	0.000000	-0.000006	-0.000000	0.000000	0.000000
63.433103	12.513058	24.162947	-0.126213	0.160090	2.132294	0.000000	0.004330	0.000000	-0.000006	-0.000000	0.000000	0.000000
63.730426	12.595288	24.071502	-0.119463	0.088436	2.133582	0.000000	-0.000902	0.000000	-0.000006	-0.000000	0.000000	0.000000
64.171386	12.861023	23.728403	-0.485453	0.686677	2.146723	0.000000	0.060560	0.000000	-0.000006	-0.000001	0.000000	0.000000
64.612346	13.458056	22.869518	-0.873623	1.253674	2.187093	0.000000	0.122712	0.000000	-0.000007	-0.000001	0.000000	0.000000
65.053306	14.413664	21.533925	-1.301705	1.763631	2.255150	0.000000	0.186261	0.000000	-0.000007	-0.000001	0.000000	0.000000
65.494266	15.771504	19.782392	-1.789259	2.193344	2.351672	0.000000	0.251932	0.000000	-0.000007	-0.000001	0.000000	0.000000
65.940226	17.616776	17.669825	-2.363251	2.524016	2.479328	0.000000	0.320874	0.000000	-0.000008	-0.000001	0.000000	0.000000
66.489286	19.982190	15.306490	-1.919363	1.805720	2.635145	0.000000	0.245867	0.000000	-0.000009	-0.000001	0.000000	0.000000
67.038346	21.782378	13.657098	-1.339901	1.216041	2.748519	0.000000	0.166498	0.000000	-0.000009	-0.000001	0.000000	0.000000
67.587406	22.890183	12.604166	-0.665795	0.712979	2.817439	0.000000	0.084177	0.000000	-0.000009	-0.000000	0.000000	0.000000
68.136466	23.227356	12.072695	0.055339	0.260700	2.840682	0.000000	0.000362	0.000000	-0.000010	-0.000000	0.000000	0.000000
68.435038	23.234392	11.906196	-0.018209	0.265403	2.843006	0.000000	0.007785	0.000000	-0.000010	-0.000000	0.000000	0.000000
68.768372	23.251315	11.739251	-0.032561	0.235434	2.845601	0.000000	0.007785	0.000000	-0.000010	-0.000000	0.000000	0.000000
69.101705	23.277806	11.592284	-0.046912	0.205465	2.848196	0.000000	0.007785	0.000000	-0.000010	-0.000000	0.000000	0.000000
69.436288	23.314018	11.464858	-0.061317	0.175384	2.850801	0.000000	0.007785	0.000000	-0.000010	-0.000000	0.000000	0.000000
69.733611	23.354286	11.368514	-0.135144	0.178360	2.853116	0.000000	0.015241	0.000000	-0.000010	-0.000000	0.000000	0.000000
70.282671	23.101596	11.400298	0.592642	-0.236588	2.838305	0.000000	-0.069113	0.000000	-0.000010	0.000000	0.000000	0.000000
