#ParticleID	Turn	x[m]	xp	y[m]	yp	z[m]	dE[GeV]# s	beta_x	beta_y	alpha_x	alpha_y	D_x	D_y	D_px	D_py	orbit_x	orbit_px	orbit_y	orbit_py
0.300000	11.829492	24.956434	-0.013024	-0.027737	2.618231	0.000000	-0.000033	0.000000	0.000000	0.000000	0.000000	0.000000
0.601250	11.845012	24.976785	-0.038495	-0.039818	2.618221	0.000000	-0.000033	0.000000	0.000000	0.000000	0.000000	0.000000
0.898573	11.875377	25.004008	-0.034511	-0.113058	2.618211	0.000000	-0.006454	0.000000	0.000000	0.000000	0.000000	0.000000
1.339533	12.058138	24.826388	-0.381522	0.514327	2.631659	0.000000	0.067506	0.000000	0.000000	0.000000	0.000000	0.000000
1.780493	12.553435	24.103711	-0.745965	1.118310	2.677858	0.000000	0.142234	0.000000	0.000000	0.000000	0.000000	0.000000
2.221453	13.383899	22.868857	-1.144488	1.671410	2.757335	0.000000	0.218582	0.000000	0.000001	0.000000	0.000000	0.000000
2.662413	14.587469	21.178011	-1.595299	2.148463	2.870995	0.000000	0.297420	0.000000	0.000001	0.000000	0.000000	0.000000
3.108373	16.239935	19.083306	-2.123294	2.528893	3.021994	0.000000	0.380135	0.000000	0.000001	0.000000	0.000000	0.000000
3.657433	18.358904	16.730745	-1.713126	1.781106	3.205439	0.000000	0.287098	0.000000	0.000001	0.000000	0.000000	0.000000
4.206493	19.957941	15.125278	-1.181952	1.160183	3.336326	0.000000	0.188967	0.000000	0.000001	0.000000	0.000000	0.000000
4.755553	20.924099	14.152551	-0.567290	0.621897	3.412332	0.000000	0.087486	0.000000	0.000001	0.000000	0.000000	0.000000
5.304613	21.189133	13.743279	0.087442	0.127908	3.432110	0.000000	-0.015548	0.000000	0.000001	0.000000	0.000000	0.000000
5.603185	21.174188	13.652118	0.017974	0.141508	3.430145	0.000000	-0.006581	0.000000	0.000002	0.000000	0.000000	0.000000
5.936519	21.167454	13.566081	0.002227	0.116603	3.427952	0.000000	-0.006581	0.000000	0.000002	0.000000	0.000000	0.000000
6.269852	21.171218	13.496648	-0.013521	0.091697	3.425758	0.000000	-0.006581	0.000000	0.000002	0.000000	0.000000	0.000000
6.604435	21.185555	13.443651	-0.029327	0.066699	3.423556	0.000000	-0.006581	0.000000	0.000002	0.000000	0.000000	0.000000
6.901758	21.207170	13.410594	-0.098783	0.079523	3.421600	0.000000	0.002359	0.000000	0.000002	0.000000	0.000000	0.000000
7.450818	20.954142	13.583792	0.556894	-0.396829	3.394695	0.000000	-0.100218	0.000000	0.000002	0.000000	0.000000	0.000000
7.999878	19.998540	14.292440	1.173236	-0.901446	3.311874	0.000000	-0.201018	0.000000	0.000002	0.000000	0.000000	0.000000
8.548938	18.407863	15.587014	1.706705	-1.470272	3.174607	0.000000	-0.298253	0.000000	0.000002	0.000000	0.000000	0.000000
9.097998	16.294469	17.559724	2.119622	-2.143822	2.985328	0.000000	-0.390197	0.000000	0.000002	-0.000000	0.000000	0.000000
9.543958	14.645519	19.317569	1.591054	-1.781232	2.829622	0.000000	-0.308494	0.000000	0.000002	-0.000000	0.000000	0.000000
9.984918	13.446015	20.698645	1.139475	-1.338826	2.710834	0.000000	-0.230789	0.000000	0.000002	0.000000	0.000000	0.000000
10.425878	12.620394	21.661101	0.739955	-0.835505	2.625699	0.000000	-0.155713	0.000000	0.000002	0.000000	0.000000	0.000000
10.866838	12.130935	22.161145	0.374241	-0.294169	2.573248	0.000000	-0.082409	0.000000	0.000002	0.000000	0.000000	0.000000
11.309048	11.955139	22.175511	0.054838	0.206111	2.552862	0.000000	-0.016305	0.000000	0.000002	0.000000	0.000000	0.000000
11.606371	11.929947	22.057104	0.029893	0.192134	2.548014	0.000000	-0.016305	0.000000	0.000002	0.000000	0.000000	0.000000
12.086371	11.920579	21.883487	-0.010378	0.169569	2.540188	0.000000	-0.016305	0.000000	0.000002	0.000000	0.000000	0.000000
12.566371	11.949872	21.731532	-0.050649	0.147003	2.532361	0.000000	-0.016305	0.000000	0.000002	0.000000	0.000000	0.000000
13.046371	12.017824	21.601240	-0.090919	0.124438	2.524534	0.000000	-0.016305	0.000000	0.000002	0.000000	0.000000	0.000000
13.526371	12.124437	21.492610	-0.131190	0.101873	2.516708	0.000000	-0.016305	0.000000	0.000002	0.000000	0.000000	0.000000
14.007621	12.270138	21.405445	-0.171566	0.079250	2.508861	0.000000	-0.016305	0.000000	0.000003	0.000000	0.000000	0.000000
14.304943	12.379576	21.362475	-0.166153	0.012887	2.504013	0.000000	-0.022446	0.000000	0.000003	0.000000	0.000000	0.000000
14.745903	12.684822	21.117272	-0.528703	0.541065	2.509745	0.000000	0.048470	0.000000	0.000003	0.000000	0.000000	0.000000
15.186863	13.319211	20.415375	-0.915409	1.044625	2.546841	0.000000	0.119939	0.000000	0.000003	0.000000	0.000000	0.000000
15.627823	14.311727	19.288721	-1.343937	1.500656	2.615722	0.000000	0.192773	0.000000	0.000003	0.000000	0.000000	0.000000
16.068783	15.707714	17.788571	-1.833865	1.888408	2.717172	0.000000	0.267802	0.000000	0.000003	0.000000	0.000000	0.000000
16.514743	17.594607	15.961679	-2.412335	2.190988	2.854043	0.000000	0.346345	0.000000	0.000003	0.000001	0.000000	0.000000
17.063803	20.017810	13.921666	-1.974907	1.546409	3.020480	0.000000	0.259024	0.000000	0.000004	0.000000	0.000000	0.000000
17.612863	21.880756	12.525200	-1.397980	1.011978	3.137639	0.000000	0.167109	0.000000	0.000004	0.000000	0.000000	0.000000
18.161923	23.051854	11.672816	-0.722308	0.549628	3.203441	0.000000	0.072231	0.000000	0.000004	0.000000	0.000000	0.000000
18.710983	23.448383	11.303800	0.004385	0.126427	3.216721	0.000000	-0.023929	0.000000	0.000004	0.000000	0.000000	0.000000
19.009556	23.486162	11.218747	-0.069653	0.128904	3.212086	0.000000	-0.015525	0.000000	0.000004	0.000000	0.000000	0.000000
19.342889	23.537352	11.142879	-0.083915	0.098699	3.206910	0.000000	-0.015525	0.000000	0.000004	0.000000	0.000000	0.000000
19.676223	23.598049	11.087149	-0.098176	0.068493	3.201735	0.000000	-0.015525	0.000000	0.000004	0.000000	0.000000	0.000000
20.010806	23.668828	11.051323	-0.229760	0.092929	3.196561	0.000000	0.000313	0.000000	0.000004	0.000000	0.000000	0.000000
20.308129	23.809386	11.004132	-0.305192	0.094543	3.196654	0.000000	0.008665	0.000000	0.000004	0.000000	0.000000	0.000000
20.857189	23.733881	11.122837	0.441895	-0.312016	3.175195	0.000000	-0.086713	0.000000	0.000004	-0.000000	0.000000	0.000000
21.406249	22.850340	11.697504	1.157769	-0.740800	3.101715	0.000000	-0.180552	0.000000	0.000004	-0.000000	0.000000	0.000000
21.955309	21.221170	12.769067	1.791864	-1.222350	2.977516	0.000000	-0.271189	0.000000	0.000004	-0.000000	0.000000	0.000000
22.504369	18.961449	14.413849	2.299390	-1.790965	2.804801	0.000000	-0.357015	0.000000	0.000004	-0.000000	0.000000	0.000000
22.950329	17.180734	15.890405	1.707700	-1.506029	2.662878	0.000000	-0.279816	0.000000	0.000004	-0.000000	0.000000	0.000000
23.391289	15.903960	17.067598	1.198727	-1.153427	2.555810	0.000000	-0.206259	0.000000	0.000004	-0.000000	0.000000	0.000000
23.832249	15.050304	17.909407	0.744520	-0.748345	2.480630	0.000000	-0.135050	0.000000	0.000003	-0.000000	0.000000	0.000000
24.273209	14.580766	18.377529	0.324328	-0.309214	2.436481	0.000000	-0.065380	0.000000	0.000003	-0.000000	0.000000	0.000000
24.715418	14.474008	18.450419	-0.045640	0.098673	2.422857	0.000000	-0.002396	0.000000	0.000003	0.000000	0.000000	0.000000
25.012741	14.507268	18.396582	-0.066224	0.082401	2.422145	0.000000	-0.002396	0.000000	0.000003	0.000000	0.000000	0.000000
25.346075	14.559110	18.347728	-0.089302	0.064159	2.421347	0.000000	-0.002396	0.000000	0.000003	0.000000	0.000000	0.000000
25.679408	14.626337	18.311037	-0.112380	0.045917	2.420548	0.000000	-0.002396	0.000000	0.000003	0.000000	0.000000	0.000000
26.013991	14.708990	18.286808	-0.016215	-0.120746	2.419722	0.000000	-0.022026	0.000000	0.000003	-0.000000	0.000000	0.000000
26.311314	14.724644	18.363514	-0.000326	-0.182273	2.413173	0.000000	-0.027944	0.000000	0.000003	-0.000000	0.000000	0.000000
26.752274	14.906371	18.325060	-0.413354	0.269146	2.415959	0.000000	0.040593	0.000000	0.000003	0.000000	0.000000	0.000000
27.193234	15.459275	17.892391	-0.845267	0.708319	2.449040	0.000000	0.109591	0.000000	0.000003	0.000000	0.000000	0.000000
27.634194	16.408617	17.085192	-1.315798	1.115264	2.512793	0.000000	0.179838	0.000000	0.000004	0.000000	0.000000	0.000000
28.075154	17.797770	15.940191	-1.846444	1.471465	2.607943	0.000000	0.252133	0.000000	0.000004	0.000000	0.000000	0.000000
28.521114	19.714340	14.492239	-2.466406	1.761630	2.737178	0.000000	0.327743	0.000000	0.000004	0.000000	0.000000	0.000000
29.070174	22.150308	12.878788	-1.943946	1.194285	2.894468	0.000000	0.244357	0.000000	0.000004	0.000000	0.000000	0.000000
29.619234	23.933294	11.838262	-1.284175	0.712007	3.004715	0.000000	0.156638	0.000000	0.000004	0.000000	0.000000	0.000000
30.168294	24.937358	11.296545	-0.533696	0.280443	3.065964	0.000000	0.066139	0.000000	0.000004	0.000000	0.000000	0.000000
30.717354	25.091577	11.215052	0.254480	-0.131145	3.077129	0.000000	-0.025532	0.000000	0.000004	-0.000000	0.000000	0.000000
31.015927	24.982442	11.283899	0.176599	-0.128742	3.071906	0.000000	-0.017492	0.000000	0.000004	-0.000000	0.000000	0.000000
31.349260	24.869296	11.379737	0.162840	-0.158772	3.066075	0.000000	-0.017492	0.000000	0.000004	-0.000000	0.000000	0.000000
31.682593	24.765322	11.495595	0.149081	-0.188802	3.060244	0.000000	-0.017492	0.000000	0.000004	-0.000000	0.000000	0.000000
32.017177	24.670182	11.632020	0.135271	-0.218945	3.054392	0.000000	-0.017492	0.000000	0.000004	-0.000000	0.000000	0.000000
32.314499	24.593393	11.770179	0.058743	-0.214979	3.049191	0.000000	-0.009526	0.000000	0.000004	-0.000000	0.000000	0.000000
32.863559	24.107587	12.245591	0.820815	-0.655997	3.019083	0.000000	-0.099985	0.000000	0.000004	-0.000000	0.000000	0.000000
33.412619	22.811974	13.227957	1.524910	-1.143741	2.939721	0.000000	-0.188671	0.000000	0.000004	-0.000000	0.000000	0.000000
33.961679	20.798069	14.787247	2.121292	-1.712950	2.812515	0.000000	-0.274010	0.000000	0.000004	-0.000000	0.000000	0.000000
34.510739	18.208124	17.034528	2.567837	-2.404169	2.639719	0.000000	-0.354489	0.000000	0.000003	-0.000001	0.000000	0.000000
34.956699	16.194462	19.044571	1.963683	-2.084237	2.497970	0.000000	-0.281570	0.000000	0.000003	-0.000000	0.000000	0.000000
35.397659	14.692987	20.706461	1.454248	-1.670222	2.389189	0.000000	-0.212286	0.000000	0.000003	-0.000000	0.000000	0.000000
35.838619	13.609908	21.968191	1.011254	-1.180213	2.310397	0.000000	-0.145419	0.000000	0.000003	-0.000000	0.000000	0.000000
36.279579	12.895742	22.772352	0.614461	-0.636506	2.260698	0.000000	-0.080209	0.000000	0.000003	-0.000000	0.000000	0.000000
36.721789	12.517170	23.082656	0.276330	-0.120496	2.239499	0.000000	-0.021404	0.000000	0.000003	-0.000000	0.000000	0.000000
37.019112	12.360453	23.158194	0.250763	-0.133564	2.233135	0.000000	-0.021404	0.000000	0.000003	-0.000000	0.000000	0.000000
37.352445	12.202832	23.252120	0.222100	-0.148214	2.226000	0.000000	-0.021404	0.000000	0.000002	-0.000000	0.000000	0.000000
37.685779	12.064321	23.355813	0.193436	-0.162865	2.218866	0.000000	-0.021404	0.000000	0.000002	-0.000000	0.000000	0.000000
38.020362	11.944506	23.469717	0.164665	-0.177570	2.211704	0.000000	-0.021404	0.000000	0.000002	-0.000000	0.000000	0.000000
38.317684	11.854190	23.579194	0.168167	-0.248460	2.205341	0.000000	-0.026812	0.000000	0.000002	-0.000000	0.000000	0.000000
38.758644	11.857080	23.537164	-0.174746	0.343411	2.207443	0.000000	0.036358	0.000000	0.000002	-0.000000	0.000000	0.000000
39.199604	12.164756	22.978074	-0.525642	0.919657	2.237466	0.000000	0.099941	0.000000	0.000002	-0.000000	0.000000	0.000000
39.640564	12.791274	21.927362	-0.900554	1.454060	2.295750	0.000000	0.164663	0.000000	0.000002	-0.000000	0.000000	0.000000
40.081524	13.765260	20.432833	-1.316609	1.922304	2.382961	0.000000	0.231261	0.000000	0.000002	0.000000	0.000000	0.000000
40.527484	15.148774	18.539921	-1.796641	2.304363	2.501562	0.000000	0.300897	0.000000	0.000002	0.000000	0.000000	0.000000
41.076544	16.914533	16.412857	-1.400290	1.592515	2.646246	0.000000	0.225350	0.000000	0.000002	-0.000000	0.000000	0.000000
41.625604	18.187829	15.000985	-0.905029	0.994099	2.748289	0.000000	0.145806	0.000000	0.000002	-0.000000	0.000000	0.000000
42.174664	18.878722	14.203740	-0.345842	0.466490	2.805883	0.000000	0.063675	0.000000	0.000002	-0.000000	0.000000	0.000000
42.723724	18.938411	13.964337	0.237774	-0.027892	2.818005	0.000000	-0.019585	0.000000	0.000002	-0.000000	0.000000	0.000000
43.022297	18.830847	13.965590	0.171968	-0.012789	2.814356	0.000000	-0.012222	0.000000	0.000002	-0.000000	0.000000	0.000000
43.502297	18.678355	13.994368	0.145724	-0.047165	2.808489	0.000000	-0.012222	0.000000	0.000002	-0.000000	0.000000	0.000000
43.982297	18.551058	14.056147	0.119480	-0.081541	2.802623	0.000000	-0.012222	0.000000	0.000002	-0.000000	0.000000	0.000000
44.462297	18.448954	14.150927	0.093236	-0.115917	2.796756	0.000000	-0.012222	0.000000	0.000002	-0.000000	0.000000	0.000000
44.942297	18.372044	14.278707	0.066992	-0.150293	2.790890	0.000000	-0.012222	0.000000	0.000001	-0.000000	0.000000	0.000000
45.423547	18.320454	14.439772	-0.050090	-0.113214	2.785026	0.000000	0.001577	0.000000	0.000001	-0.000000	0.000000	0.000000
45.720870	18.355077	14.513295	-0.114317	-0.096149	2.785494	0.000000	0.008855	0.000000	0.000001	-0.000000	0.000000	0.000000
46.269930	18.171541	14.899652	0.446611	-0.611675	2.767787	0.000000	-0.073261	0.000000	0.000001	-0.000000	0.000000	0.000000
46.818990	17.385795	15.872578	0.975993	-1.170770	2.705283	0.000000	-0.154078	0.000000	0.000001	-0.000000	0.000000	0.000000
47.368050	16.053338	17.501373	1.436436	-1.813256	2.599093	0.000000	-0.232162	0.000000	0.000001	-0.000000	0.000000	0.000000
47.917110	14.268291	19.902052	1.795416	-2.584896	2.451099	0.000000	-0.306127	0.000000	0.000001	-0.000000	0.000000	0.000000
48.363070	12.879048	22.036566	1.330793	-2.181316	2.329869	0.000000	-0.237834	0.000000	0.000001	-0.000000	0.000000	0.000000
48.804030	11.885572	23.745648	0.930737	-1.679757	2.239452	0.000000	-0.172647	0.000000	0.000000	-0.000000	0.000000	0.000000
49.244990	11.224901	24.976875	0.573203	-1.101770	2.177320	0.000000	-0.109426	0.000000	0.000000	-0.000000	0.000000	0.000000
49.685950	10.866850	25.674227	0.241858	-0.473653	2.142765	0.000000	-0.047451	0.000000	0.000000	-0.000000	0.000000	0.000000
50.128160	10.795190	25.805694	-0.052081	0.112681	2.135404	0.000000	0.008747	0.000000	0.000000	-0.000000	0.000000	0.000000
50.425482	10.834371	25.742157	-0.079698	0.101013	2.138005	0.000000	0.008747	0.000000	0.000000	-0.000000	0.000000	0.000000
50.758816	10.897824	25.679176	-0.110660	0.087932	2.140920	0.000000	0.008747	0.000000	-0.000000	-0.000000	0.000000	0.000000
51.092149	10.981917	25.624914	-0.141621	0.074851	2.143836	0.000000	0.008747	0.000000	-0.000000	-0.000000	0.000000	0.000000
51.426732	11.086859	25.579738	-0.082755	-0.145794	2.146741	0.000000	-0.008669	0.000000	-0.000000	-0.000000	0.000000	0.000000
51.724055	11.144097	25.669963	-0.082428	-0.220615	2.144163	0.000000	-0.013927	0.000000	-0.000000	-0.000000	0.000000	0.000000
52.165015	11.362263	25.578973	-0.414202	0.426177	2.151610	0.000000	0.047734	0.000000	-0.000000	-0.000000	0.000000	0.000000
52.605975	11.880234	24.923967	-0.764899	1.053579	2.186341	0.000000	0.109939	0.000000	-0.000001	-0.000000	0.000000	0.000000
53.046935	12.721676	23.734748	-1.150543	1.633044	2.248752	0.000000	0.173396	0.000000	-0.000001	-0.000000	0.000000	0.000000
53.487895	13.925030	22.065425	-1.588752	2.138207	2.339553	0.000000	0.238829	0.000000	-0.000001	-0.000000	0.000000	0.000000
53.933855	15.565898	19.966989	-2.103784	2.547417	2.461283	0.000000	0.307379	0.000000	-0.000001	-0.000000	0.000000	0.000000
54.482915	17.678411	17.605809	-1.720949	1.778373	2.609873	0.000000	0.233074	0.000000	-0.000001	-0.000000	0.000000	0.000000
55.031975	19.300882	16.015034	-1.216556	1.135998	2.716468	0.000000	0.154635	0.000000	-0.000001	-0.000000	0.000000	0.000000
55.581035	20.318707	15.081358	-0.626230	0.574539	2.779177	0.000000	0.073452	0.000000	-0.000001	-0.000000	0.000000	0.000000
56.130095	20.659993	14.738277	0.008328	0.054002	2.796888	0.000000	-0.009033	0.000000	-0.000002	-0.000000	0.000000	0.000000
56.428668	20.691578	14.689135	-0.060135	0.072079	2.796373	0.000000	-0.001725	0.000000	-0.000002	-0.000000	0.000000	0.000000
56.762001	20.737057	14.648685	-0.076303	0.049269	2.795798	0.000000	-0.001725	0.000000	-0.000002	-0.000000	0.000000	0.000000
57.095334	20.793315	14.623443	-0.092471	0.026458	2.795223	0.000000	-0.001725	0.000000	-0.000002	-0.000000	0.000000	0.000000
57.429918	20.860623	14.613399	-0.108699	0.003562	2.794646	0.000000	-0.001725	0.000000	-0.000002	-0.000000	0.000000	0.000000
57.727240	20.929548	14.617330	-0.177806	0.021409	2.794133	0.000000	0.005576	0.000000	-0.000002	-0.000000	0.000000	0.000000
58.276300	20.767676	14.874587	0.470877	-0.492716	2.774554	0.000000	-0.076790	0.000000	-0.000002	-0.000000	0.000000	0.000000
58.825360	19.907602	15.712258	1.086299	-1.041935	2.710059	0.000000	-0.157794	0.000000	-0.000002	-0.000000	0.000000	0.000000
59.374420	18.410076	17.190008	1.624991	-1.665370	2.601792	0.000000	-0.235998	0.000000	-0.000002	0.000000	0.000000	0.000000
59.923480	16.380876	19.413095	2.048902	-2.407425	2.451673	0.000000	-0.310017	0.000000	-0.000002	0.000000	0.000000	0.000000
60.369440	14.792542	21.389067	1.525317	-2.004701	2.328709	0.000000	-0.241732	0.000000	-0.000002	0.000000	0.000000	0.000000
60.810400	13.649963	22.945774	1.075631	-1.512134	2.236564	0.000000	-0.176596	0.000000	-0.000002	-0.000000	0.000000	0.000000
61.251360	12.880884	24.035963	0.675088	-0.950767	2.172670	0.000000	-0.113472	0.000000	-0.000002	-0.000000	0.000000	0.000000
61.692320	12.450167	24.610031	0.305387	-0.346140	2.136301	0.000000	-0.051641	0.000000	-0.000002	-0.000000	0.000000	0.000000
62.134530	12.338186	24.641325	-0.020205	0.213753	2.127046	0.000000	0.004386	0.000000	-0.000002	-0.000000	0.000000	0.000000
62.431853	12.357368	24.517969	-0.044312	0.201135	2.128350	0.000000	0.004386	0.000000	-0.000002	-0.000000	0.000000	0.000000
62.765186	12.395919	24.388594	-0.071340	0.186990	2.129812	0.000000	0.004386	0.000000	-0.000002	-0.000000	0.000000	0.000000
63.098520	12.452488	24.268649	-0.098367	0.172844	2.131275	0.000000	0.004386	0.000000	-0.000002	-0.000000	0.000000	0.000000
63.433103	12.527389	24.157738	-0.125496	0.158646	2.132742	0.000000	0.004386	0.000000	-0.000002	-0.000000	0.000000	0.000000
63.730426	12.609182	24.067152	-0.118681	0.087007	2.134046	0.000000	-0.000847	0.000000	-0.000002	-0.000000	0.000000	0.000000
64.171386	12.874361	23.725352	-0.484969	0.685170	2.147214	0.000000	0.060627	0.000000	-0.000003	-0.000000	0.000000	0.000000
64.612346	13.471090	22.867804	-0.873414	1.252158	2.187616	0.000000	0.122792	0.000000	-0.000003	-0.000000	0.000000	0.000000
65.053306	14.426630	21.533527	-1.301762	1.762174	2.255712	0.000000	0.186355	0.000000	-0.000003	-0.000000	0.000000	0.000000
65.494266	15.784638	19.783228	-1.789584	2.192013	2.352278	0.000000	0.252041	0.000000	-0.000003	-0.000000	0.000000	0.000000
65.940226	17.630326	17.671768	-2.363861	2.522874	2.479986	0.000000	0.320999	0.000000	-0.000003	-0.000001	0.000000	0.000000
66.489286	19.996126	15.309624	-1.919451	1.804680	2.635865	0.000000	0.245970	0.000000	-0.000004	-0.000000	0.000000	0.000000
67.038346	21.796119	13.661351	-1.339461	1.215030	2.749289	0.000000	0.166577	0.000000	-0.000004	-0.000000	0.000000	0.000000
67.587406	22.903164	12.609546	-0.664858	0.711924	2.818245	0.000000	0.084230	0.000000	-0.000004	-0.000000	0.000000	0.000000
68.136466	23.239063	12.079291	0.056707	0.259527	2.841510	0.000000	0.000389	0.000000	-0.000004	-0.000000	0.000000	0.000000
68.435038	23.245296	11.913474	-0.016862	0.264277	2.843843	0.000000	0.007814	0.000000	-0.000004	-0.000000	0.000000	0.000000
68.768372	23.261319	11.747267	-0.031206	0.234343	2.846448	0.000000	0.007814	0.000000	-0.000004	-0.000000	0.000000	0.000000
69.101705	23.286904	11.601016	-0.045550	0.204409	2.849053	0.000000	0.007814	0.000000	-0.000004	-0.000000	0.000000	0.000000
69.436288	23.322202	11.474285	-0.059947	0.174363	2.851667	0.000000	0.007814	0.000000	-0.000004	-0.000000	0.000000	0.000000
69.733611	23.361653	11.378539	-0.133784	0.177395	2.853991	0.000000	0.015271	0.000000	-0.000004	-0.000000	0.000000	0.000000
70.282671	23.107349	11.411540	0.594205	-0.237853	2.839188	0.000000	-0.069111	0.000000	-0.000004	0.000000	0.000000	0.000000
