#ParticleID	Turn	x[m]	xp	y[m]	yp	z[m]	dE[GeV]# s	beta_x	beta_y	alpha_x	alpha_y	D_x	D_y	D_px	D_py	orbit_x	orbit_px	orbit_y	orbit_py
0.300000	11.807381	25.044746	-0.010359	-0.026987	2.618149	0.000000	-0.000002	0.000000	-0.000001	0.000002	0.000000	0.000000
0.601250	11.821309	25.064632	-0.035875	-0.039025	2.618148	0.000000	-0.000002	0.000000	-0.000000	0.000002	0.000000	0.000000
0.898573	11.850130	25.091370	-0.031999	-0.112436	2.618147	0.000000	-0.006422	0.000000	0.000000	0.000002	0.000000	0.000000
1.339533	12.030403	24.912184	-0.378370	0.517244	2.631608	0.000000	0.067536	0.000000	0.000001	0.000002	0.000000	0.000000
1.780493	12.522587	24.185968	-0.742028	1.123389	2.677819	0.000000	0.142263	0.000000	0.000002	0.000002	0.000000	0.000000
2.221453	13.349169	22.945762	-1.139587	1.678421	2.757308	0.000000	0.218610	0.000000	0.000002	0.000002	0.000000	0.000000
2.662413	14.547912	21.247997	-1.589211	2.157086	2.870980	0.000000	0.297448	0.000000	0.000003	0.000002	0.000000	0.000000
3.108373	16.194311	19.145021	-2.115728	2.538739	3.021990	0.000000	0.380162	0.000000	0.000004	0.000002	0.000000	0.000000
3.657433	18.305568	16.783030	-1.706729	1.788535	3.205449	0.000000	0.287124	0.000000	0.000005	0.000002	0.000000	0.000000
4.206493	19.898434	15.170483	-1.177176	1.165724	3.336350	0.000000	0.188994	0.000000	0.000006	0.000002	0.000000	0.000000
4.755553	20.860399	14.192521	-0.564473	0.625946	3.412370	0.000000	0.087511	0.000000	0.000007	0.000001	0.000000	0.000000
5.304613	21.123514	13.779486	0.088102	0.130752	3.432161	0.000000	-0.015524	0.000000	0.000008	0.000001	0.000000	0.000000
5.603185	21.108085	13.686560	0.018763	0.144483	3.430203	0.000000	-0.006557	0.000000	0.000008	0.000001	0.000000	0.000000
5.936519	21.100841	13.598525	0.002966	0.119620	3.428016	0.000000	-0.006557	0.000000	0.000008	0.000001	0.000000	0.000000
6.269852	21.104130	13.527067	-0.012831	0.094756	3.425830	0.000000	-0.006557	0.000000	0.000009	0.000001	0.000000	0.000000
6.604435	21.118021	13.472009	-0.028688	0.069800	3.423636	0.000000	-0.006557	0.000000	0.000009	0.000001	0.000000	0.000000
6.901758	21.139270	13.437097	-0.098007	0.082729	3.421686	0.000000	0.002382	0.000000	0.000009	0.000001	0.000000	0.000000
7.450818	20.886642	13.607171	0.555393	-0.394313	3.394793	0.000000	-0.100198	0.000000	0.000010	0.000001	0.000000	0.000000
7.999878	19.933898	14.313351	1.169563	-0.899441	3.311982	0.000000	-0.201002	0.000000	0.000010	0.000001	0.000000	0.000000
8.548938	18.348334	15.605937	1.701121	-1.468634	3.174723	0.000000	-0.298240	0.000000	0.000011	0.000000	0.000000	0.000000
9.097998	16.241947	17.576997	2.112520	-2.142435	2.985451	0.000000	-0.390188	0.000000	0.000011	-0.000000	0.000000	0.000000
9.543958	14.598619	19.333287	1.585504	-1.779142	2.829749	0.000000	-0.308482	0.000000	0.000011	0.000000	0.000000	0.000000
9.984918	13.403427	20.712247	1.135209	-1.336135	2.710967	0.000000	-0.230773	0.000000	0.000011	0.000000	0.000000	0.000000
10.425878	12.581075	21.672109	0.736779	-0.832335	2.625840	0.000000	-0.155693	0.000000	0.000011	0.000001	0.000000	0.000000
10.866838	12.093991	22.169198	0.372010	-0.290664	2.573397	0.000000	-0.082386	0.000000	0.000011	0.000001	0.000000	0.000000
11.309048	11.919789	22.180374	0.053360	0.209784	2.553023	0.000000	-0.016278	0.000000	0.000012	0.000001	0.000000	0.000000
11.606371	11.895496	22.059787	0.028346	0.195790	2.548183	0.000000	-0.016278	0.000000	0.000012	0.000001	0.000000	0.000000
12.086371	11.887668	21.882674	-0.012038	0.173197	2.540369	0.000000	-0.016278	0.000000	0.000013	0.000001	0.000000	0.000000
12.566371	11.918609	21.727250	-0.052422	0.150603	2.532555	0.000000	-0.016278	0.000000	0.000014	0.000001	0.000000	0.000000
13.046371	11.988318	21.593516	-0.092806	0.128010	2.524741	0.000000	-0.016278	0.000000	0.000014	0.000001	0.000000	0.000000
13.526371	12.096796	21.481470	-0.133190	0.105417	2.516927	0.000000	-0.016278	0.000000	0.000015	0.000001	0.000000	0.000000
14.007621	12.244476	21.390908	-0.173679	0.082765	2.509093	0.000000	-0.016278	0.000000	0.000015	0.000001	0.000000	0.000000
14.304943	12.355191	21.345853	-0.168399	0.016432	2.504252	0.000000	-0.022418	0.000000	0.000016	0.000001	0.000000	0.000000
14.745903	12.662198	21.097743	-0.530467	0.544085	2.509998	0.000000	0.048504	0.000000	0.000016	0.000002	0.000000	0.000000
15.186863	13.297960	20.393466	-0.916770	1.046982	2.547109	0.000000	0.119979	0.000000	0.000017	0.000002	0.000000	0.000000
15.627823	14.291523	19.265067	-1.344958	1.502242	2.616009	0.000000	0.192821	0.000000	0.000018	0.000003	0.000000	0.000000
16.068783	15.688280	17.763885	-1.834593	1.889151	2.717482	0.000000	0.267858	0.000000	0.000019	0.000003	0.000000	0.000000
16.514743	17.575704	15.936723	-2.412804	2.190848	2.854378	0.000000	0.346409	0.000000	0.000021	0.000004	0.000000	0.000000
17.063803	19.999915	13.896581	-1.976258	1.546784	3.020845	0.000000	0.259077	0.000000	0.000023	0.000003	0.000000	0.000000
17.612863	21.864790	12.499411	-1.400120	1.012894	3.138029	0.000000	0.167150	0.000000	0.000024	0.000002	0.000000	0.000000
18.161923	23.038604	11.645695	-0.725084	0.551150	3.203849	0.000000	0.072258	0.000000	0.000025	0.000001	0.000000	0.000000
18.710983	23.438444	11.274627	0.001169	0.128663	3.217140	0.000000	-0.023915	0.000000	0.000025	0.000000	0.000000	0.000000
19.009556	23.478124	11.188314	-0.072843	0.130972	3.212508	0.000000	-0.015511	0.000000	0.000026	0.000001	0.000000	0.000000
19.342889	23.531444	11.111101	-0.087116	0.100668	3.207338	0.000000	-0.015511	0.000000	0.000026	0.000001	0.000000	0.000000
19.676223	23.594279	11.054091	-0.101389	0.070363	3.202167	0.000000	-0.015511	0.000000	0.000026	0.000001	0.000000	0.000000
20.010806	23.667211	11.017046	-0.232976	0.094531	3.196997	0.000000	0.000328	0.000000	0.000026	0.000001	0.000000	0.000000
20.308129	23.809687	10.968930	-0.308417	0.095956	3.197094	0.000000	0.008680	0.000000	0.000026	0.000001	0.000000	0.000000
20.857189	23.737700	11.085535	0.438750	-0.309582	3.175640	0.000000	-0.086712	0.000000	0.000027	-0.000000	0.000000	0.000000
21.406249	22.857466	11.656894	1.154925	-0.737171	3.102157	0.000000	-0.180566	0.000000	0.000026	-0.000001	0.000000	0.000000
21.955309	21.231160	12.723701	1.789522	-1.217268	2.977947	0.000000	-0.271217	0.000000	0.000026	-0.000002	0.000000	0.000000
22.504369	18.973656	14.361945	2.297716	-1.784067	2.805214	0.000000	-0.357057	0.000000	0.000024	-0.000003	0.000000	0.000000
22.950329	17.194463	15.832864	1.705944	-1.500339	2.663275	0.000000	-0.279847	0.000000	0.000023	-0.000002	0.000000	0.000000
23.391289	15.919302	17.005668	1.196810	-1.149200	2.556196	0.000000	-0.206279	0.000000	0.000023	-0.000001	0.000000	0.000000
23.832249	15.067439	17.844467	0.742354	-0.745772	2.481010	0.000000	-0.135061	0.000000	0.000022	-0.000001	0.000000	0.000000
24.273209	14.599957	18.311097	0.321814	-0.308413	2.436858	0.000000	-0.065381	0.000000	0.000022	-0.000000	0.000000	0.000000
24.715418	14.495618	18.384081	-0.048570	0.097836	2.423237	0.000000	-0.002387	0.000000	0.000022	0.000000	0.000000	0.000000
25.012741	14.530613	18.330758	-0.069129	0.081508	2.422527	0.000000	-0.002387	0.000000	0.000022	0.000000	0.000000	0.000000
25.346075	14.584382	18.282521	-0.092179	0.063203	2.421732	0.000000	-0.002387	0.000000	0.000022	0.000000	0.000000	0.000000
25.679408	14.653518	18.246487	-0.115229	0.044898	2.420936	0.000000	-0.002387	0.000000	0.000022	0.000000	0.000000	0.000000
26.013991	14.738067	18.222960	-0.018800	-0.121310	2.420113	0.000000	-0.022020	0.000000	0.000022	0.000000	0.000000	0.000000
26.311314	14.755247	18.300019	-0.002804	-0.182733	2.413566	0.000000	-0.027938	0.000000	0.000022	0.000000	0.000000	0.000000
26.752274	14.939498	18.262730	-0.416622	0.266975	2.416357	0.000000	0.040609	0.000000	0.000022	0.000001	0.000000	0.000000
27.193234	15.495687	17.832695	-0.849475	0.704536	2.449447	0.000000	0.109618	0.000000	0.000023	0.000001	0.000000	0.000000
27.634194	16.449224	17.029483	-1.321138	1.110042	2.513213	0.000000	0.179875	0.000000	0.000023	0.000002	0.000000	0.000000
28.075154	17.843673	15.889636	-1.853160	1.465041	2.608381	0.000000	0.252181	0.000000	0.000024	0.000002	0.000000	0.000000
28.521114	19.766966	14.447847	-2.474819	1.754294	2.737639	0.000000	0.327803	0.000000	0.000025	0.000003	0.000000	0.000000
29.070174	22.211478	12.841479	-1.951000	1.188644	2.894957	0.000000	0.244402	0.000000	0.000027	0.000002	0.000000	0.000000
29.619234	24.001234	11.806404	-1.289373	0.707659	3.005223	0.000000	0.156666	0.000000	0.000028	0.000001	0.000000	0.000000
30.168294	25.009812	11.268895	-0.536670	0.277080	3.066483	0.000000	0.066151	0.000000	0.000028	0.000000	0.000000	0.000000
30.717354	25.165972	11.190668	0.253940	-0.133764	3.077649	0.000000	-0.025537	0.000000	0.000028	-0.000001	0.000000	0.000000
31.015927	25.057256	11.261142	0.175917	-0.131504	3.072425	0.000000	-0.017498	0.000000	0.000028	-0.000000	0.000000	0.000000
31.349260	24.944550	11.358849	0.162202	-0.161616	3.066593	0.000000	-0.017498	0.000000	0.000028	-0.000000	0.000000	0.000000
31.682593	24.840987	11.476630	0.148488	-0.191728	3.060760	0.000000	-0.017498	0.000000	0.000028	-0.000000	0.000000	0.000000
32.017177	24.746229	11.615041	0.134722	-0.221953	3.054906	0.000000	-0.017498	0.000000	0.000027	-0.000000	0.000000	0.000000
32.314499	24.669755	11.755011	0.058046	-0.218106	3.049703	0.000000	-0.009531	0.000000	0.000027	-0.000000	0.000000	0.000000
32.863559	24.183317	12.233697	0.822656	-0.658869	3.019588	0.000000	-0.100007	0.000000	0.000027	-0.000001	0.000000	0.000000
33.412619	22.884340	13.219169	1.529157	-1.146561	2.940211	0.000000	-0.188709	0.000000	0.000026	-0.000002	0.000000	0.000000
33.961679	20.864578	14.781621	2.127645	-1.715920	2.812980	0.000000	-0.274064	0.000000	0.000025	-0.000003	0.000000	0.000000
34.510739	18.266698	17.032342	2.575848	-2.407501	2.640151	0.000000	-0.354558	0.000000	0.000023	-0.000004	0.000000	0.000000
34.956699	16.246697	19.045556	1.969935	-2.087986	2.498376	0.000000	-0.281627	0.000000	0.000021	-0.000003	0.000000	0.000000
35.397659	14.740370	20.710873	1.459040	-1.674214	2.389572	0.000000	-0.212333	0.000000	0.000020	-0.000003	0.000000	0.000000
35.838619	13.653626	21.976164	1.014805	-1.184266	2.310763	0.000000	-0.145457	0.000000	0.000019	-0.000002	0.000000	0.000000
36.279579	12.936813	22.783858	0.616933	-0.640435	2.261050	0.000000	-0.080237	0.000000	0.000018	-0.000002	0.000000	0.000000
36.721789	12.556488	23.097516	0.277930	-0.124151	2.239841	0.000000	-0.021424	0.000000	0.000017	-0.000001	0.000000	0.000000
37.019112	12.398803	23.175228	0.252422	-0.137222	2.233471	0.000000	-0.021424	0.000000	0.000017	-0.000001	0.000000	0.000000
37.352445	12.240054	23.271593	0.223824	-0.151876	2.226331	0.000000	-0.021424	0.000000	0.000017	-0.000001	0.000000	0.000000
37.685779	12.100370	23.377729	0.195227	-0.166530	2.219190	0.000000	-0.021424	0.000000	0.000016	-0.000001	0.000000	0.000000
38.020362	11.979335	23.494086	0.166523	-0.181239	2.212022	0.000000	-0.021424	0.000000	0.000016	-0.000001	0.000000	0.000000
38.317684	11.887897	23.605745	0.170163	-0.252190	2.205653	0.000000	-0.026832	0.000000	0.000015	-0.000001	0.000000	0.000000
38.758644	11.889362	23.566683	-0.173497	0.340436	2.207749	0.000000	0.036346	0.000000	0.000015	-0.000001	0.000000	0.000000
39.199604	12.196243	23.009833	-0.525083	0.917573	2.237769	0.000000	0.099938	0.000000	0.000015	-0.000000	0.000000	0.000000
39.640564	12.822563	21.960529	-0.900659	1.452960	2.296053	0.000000	0.164667	0.000000	0.000015	-0.000000	0.000000	0.000000
40.081524	13.796935	20.466516	-1.317384	1.922239	2.383267	0.000000	0.231273	0.000000	0.000015	0.000000	0.000000	0.000000
40.527484	15.181453	18.573193	-1.798124	2.305344	2.501875	0.000000	0.300917	0.000000	0.000015	0.000001	0.000000	0.000000
41.076544	16.948171	16.445520	-1.400540	1.592649	2.646567	0.000000	0.225360	0.000000	0.000015	0.000000	0.000000	0.000000
41.625604	18.221053	15.033958	-0.904029	0.993395	2.748613	0.000000	0.145805	0.000000	0.000015	-0.000000	0.000000	0.000000
42.174664	18.910190	14.237967	-0.343662	0.464898	2.806204	0.000000	0.063664	0.000000	0.000015	-0.000001	0.000000	0.000000
42.723724	18.966904	14.000847	0.240980	-0.030485	2.818317	0.000000	-0.019606	0.000000	0.000014	-0.000001	0.000000	0.000000
43.022297	18.857465	14.003577	0.175110	-0.015234	2.814662	0.000000	-0.012243	0.000000	0.000014	-0.000001	0.000000	0.000000
43.502297	18.701952	14.034658	0.148875	-0.049518	2.808786	0.000000	-0.012243	0.000000	0.000013	-0.000001	0.000000	0.000000
43.982297	18.571625	14.098652	0.122641	-0.083803	2.802910	0.000000	-0.012243	0.000000	0.000012	-0.000001	0.000000	0.000000
44.462297	18.466482	14.195560	0.096406	-0.118088	2.797034	0.000000	-0.012243	0.000000	0.000012	-0.000001	0.000000	0.000000
44.942297	18.386525	14.325382	0.070171	-0.152373	2.791157	0.000000	-0.012243	0.000000	0.000011	-0.000001	0.000000	0.000000
45.423547	18.331870	14.488404	-0.046958	-0.114963	2.785283	0.000000	0.001557	0.000000	0.000011	-0.000001	0.000000	0.000000
45.720870	18.364626	14.562948	-0.111192	-0.097709	2.785746	0.000000	0.008835	0.000000	0.000010	-0.000001	0.000000	0.000000
46.269930	18.177509	14.951858	0.449968	-0.614791	2.768026	0.000000	-0.073289	0.000000	0.000010	-0.000001	0.000000	0.000000
46.818990	17.388057	15.929155	0.979345	-1.175662	2.705506	0.000000	-0.154114	0.000000	0.000009	-0.000002	0.000000	0.000000
47.368050	16.052032	17.564451	1.439545	-1.820274	2.599295	0.000000	-0.232204	0.000000	0.000008	-0.000002	0.000000	0.000000
47.917110	14.263804	19.974225	1.798063	-2.594540	2.451276	0.000000	-0.306176	0.000000	0.000006	-0.000002	0.000000	0.000000
48.363070	12.872282	22.116660	1.333277	-2.189359	2.330027	0.000000	-0.237878	0.000000	0.000006	-0.000002	0.000000	0.000000
48.804030	11.876644	23.831996	0.933175	-1.685841	2.239592	0.000000	-0.172687	0.000000	0.000005	-0.000002	0.000000	0.000000
49.244990	11.213801	25.067619	0.575707	-1.105617	2.177444	0.000000	-0.109463	0.000000	0.000004	-0.000002	0.000000	0.000000
49.685950	10.853472	25.767310	0.244541	-0.475089	2.142874	0.000000	-0.047485	0.000000	0.000003	-0.000002	0.000000	0.000000
50.128160	10.779314	25.898950	-0.049135	0.113495	2.135499	0.000000	0.008715	0.000000	0.000002	-0.000002	0.000000	0.000000
50.425482	10.816753	25.834917	-0.076784	0.101867	2.138091	0.000000	0.008715	0.000000	0.000002	-0.000002	0.000000	0.000000
50.758816	10.878275	25.771351	-0.107783	0.088831	2.140996	0.000000	0.008715	0.000000	0.000001	-0.000002	0.000000	0.000000
51.092149	10.960463	25.716476	-0.138781	0.075795	2.143902	0.000000	0.008715	0.000000	0.000000	-0.000002	0.000000	0.000000
51.426732	11.063516	25.670655	-0.080140	-0.145543	2.146797	0.000000	-0.008701	0.000000	-0.000000	-0.000002	0.000000	0.000000
51.724055	11.119213	25.760718	-0.079919	-0.220545	2.144210	0.000000	-0.013959	0.000000	-0.000001	-0.000002	0.000000	0.000000
52.165015	11.334898	25.668605	-0.411063	0.428642	2.151644	0.000000	0.047703	0.000000	-0.000001	-0.000002	0.000000	0.000000
52.605975	11.849771	25.010407	-0.760986	1.058326	2.186362	0.000000	0.109909	0.000000	-0.000002	-0.000002	0.000000	0.000000
53.046935	12.687356	23.816072	-1.145677	1.639856	2.248760	0.000000	0.173367	0.000000	-0.000003	-0.000002	0.000000	0.000000
53.487895	13.885918	22.139941	-1.582711	2.146775	2.339549	0.000000	0.238799	0.000000	-0.000004	-0.000002	0.000000	0.000000
53.933855	15.520766	20.033217	-2.096279	2.557355	2.461266	0.000000	0.307349	0.000000	-0.000005	-0.000002	0.000000	0.000000
54.482915	17.625627	17.662565	-1.714600	1.785787	2.609840	0.000000	0.233045	0.000000	-0.000006	-0.000002	0.000000	0.000000
55.031975	19.241970	16.064787	-1.211811	1.141416	2.716420	0.000000	0.154607	0.000000	-0.000007	-0.000002	0.000000	0.000000
55.581035	20.255625	15.126076	-0.623426	0.578345	2.779115	0.000000	0.073426	0.000000	-0.000008	-0.000001	0.000000	0.000000
56.130095	20.594992	14.779570	0.008995	0.056469	2.796813	0.000000	-0.009057	0.000000	-0.000008	-0.000001	0.000000	0.000000
56.428668	20.626093	14.728875	-0.059346	0.074704	2.796291	0.000000	-0.001749	0.000000	-0.000009	-0.000001	0.000000	0.000000
56.762001	20.671063	14.686658	-0.075563	0.051946	2.795709	0.000000	-0.001749	0.000000	-0.000009	-0.000001	0.000000	0.000000
57.095334	20.726844	14.659613	-0.091781	0.029189	2.795126	0.000000	-0.001749	0.000000	-0.000010	-0.000001	0.000000	0.000000
57.429918	20.793708	14.647724	-0.108060	0.006346	2.794542	0.000000	-0.001749	0.000000	-0.000010	-0.000001	0.000000	0.000000
57.727240	20.862266	14.649986	-0.177039	0.024328	2.794022	0.000000	0.005552	0.000000	-0.000010	-0.000001	0.000000	0.000000
58.276300	20.700793	14.904538	0.469386	-0.490679	2.774431	0.000000	-0.076810	0.000000	-0.000011	-0.000001	0.000000	0.000000
58.825360	19.843554	15.740387	1.082657	-1.040635	2.709927	0.000000	-0.157809	0.000000	-0.000011	-0.000001	0.000000	0.000000
59.374420	18.351099	17.217069	1.619454	-1.664714	2.601653	0.000000	-0.236010	0.000000	-0.000011	-0.000000	0.000000	0.000000
59.923480	16.328847	19.439765	2.041860	-2.407366	2.451529	0.000000	-0.310024	0.000000	-0.000011	0.000000	0.000000	0.000000
60.369440	14.746089	21.415279	1.519812	-2.003735	2.328561	0.000000	-0.241742	0.000000	-0.000011	-0.000000	0.000000	0.000000
60.810400	13.607788	22.970751	1.071398	-1.510312	2.236410	0.000000	-0.176611	0.000000	-0.000012	-0.000000	0.000000	0.000000
61.251360	12.841953	24.058984	0.671934	-0.948171	2.172510	0.000000	-0.113491	0.000000	-0.000012	-0.000001	0.000000	0.000000
61.692320	12.413596	24.630465	0.303169	-0.342889	2.136131	0.000000	-0.051664	0.000000	-0.000012	-0.000001	0.000000	0.000000
62.134530	12.303202	24.658646	-0.021672	0.217463	2.126867	0.000000	0.004359	0.000000	-0.000013	-0.000001	0.000000	0.000000
62.431853	12.323278	24.533087	-0.045850	0.204835	2.128163	0.000000	0.004359	0.000000	-0.000013	-0.000001	0.000000	0.000000
62.765186	12.362880	24.401250	-0.072956	0.190678	2.129616	0.000000	0.004359	0.000000	-0.000014	-0.000001	0.000000	0.000000
63.098520	12.420552	24.278850	-0.100062	0.176521	2.131070	0.000000	0.004359	0.000000	-0.000014	-0.000001	0.000000	0.000000
63.433103	12.496614	24.165483	-0.127270	0.162310	2.132529	0.000000	0.004359	0.000000	-0.000014	-0.000001	0.000000	0.000000
63.730426	12.579483	24.072720	-0.120594	0.090641	2.133825	0.000000	-0.000875	0.000000	-0.000015	-0.000001	0.000000	0.000000
64.171386	12.846067	23.727680	-0.486254	0.688856	2.146980	0.000000	0.060594	0.000000	-0.000015	-0.000002	0.000000	0.000000
64.612346	13.443674	22.866920	-0.874129	1.255730	2.187366	0.000000	0.122752	0.000000	-0.000016	-0.000002	0.000000	0.000000
65.053306	14.399607	21.529604	-1.301941	1.765468	2.255444	0.000000	0.186309	0.000000	-0.000017	-0.000002	0.000000	0.000000
65.494266	15.757539	19.776579	-1.789234	2.194880	2.351989	0.000000	0.251988	0.000000	-0.000018	-0.000003	0.000000	0.000000
65.940226	17.602671	17.662805	-2.362964	2.525177	2.479673	0.000000	0.320938	0.000000	-0.000020	-0.000003	0.000000	0.000000
66.489286	19.968088	15.298207	-1.919658	1.806875	2.635523	0.000000	0.245919	0.000000	-0.000022	-0.000003	0.000000	0.000000
67.038346	21.768910	13.647512	-1.340757	1.217273	2.748923	0.000000	0.166538	0.000000	-0.000023	-0.000002	0.000000	0.000000
67.587406	22.877936	12.593147	-0.667152	0.714374	2.817862	0.000000	0.084204	0.000000	-0.000024	-0.000001	0.000000	0.000000
68.136466	23.216831	12.060009	0.053577	0.262358	2.841116	0.000000	0.000375	0.000000	-0.000024	-0.000001	0.000000	0.000000
68.435038	23.224908	11.892553	-0.019957	0.266980	2.843445	0.000000	0.007800	0.000000	-0.000024	-0.000001	0.000000	0.000000
68.768372	23.242999	11.724576	-0.034315	0.236953	2.846045	0.000000	0.007800	0.000000	-0.000025	-0.000001	0.000000	0.000000
69.101705	23.270662	11.576616	-0.048673	0.206927	2.848646	0.000000	0.007800	0.000000	-0.000025	-0.000001	0.000000	0.000000
69.436288	23.308055	11.448231	-0.063085	0.176787	2.851256	0.000000	0.007800	0.000000	-0.000025	-0.000001	0.000000	0.000000
69.733611	23.349376	11.351069	-0.136913	0.179669	2.853575	0.000000	0.015258	0.000000	-0.000025	-0.000001	0.000000	0.000000
70.282671	23.098702	11.381141	0.590761	-0.234762	2.838769	0.000000	-0.069111	0.000000	-0.000025	0.000000	0.000000	0.000000
