#ParticleID	Turn	x[m]	xp	y[m]	yp	z[m]	dE[GeV]# s	beta_x	beta_y	alpha_x	alpha_y	D_x	D_y	D_px	D_py	orbit_x	orbit_px	orbit_y	orbit_py
0.300000	11.814097	25.017768	-0.011035	-0.027299	2.618046	0.000000	0.000037	0.000000	0.000000	0.000001	0.000000	0.000000
0.601250	11.828428	25.037846	-0.036537	-0.039349	2.618057	0.000000	0.000037	0.000000	0.000001	0.000001	0.000000	0.000000
0.898573	11.857638	25.064780	-0.032629	-0.112708	2.618067	0.000000	-0.006383	0.000000	0.000001	0.000001	0.000000	0.000000
1.339533	12.038547	24.886144	-0.379187	0.516275	2.631545	0.000000	0.067573	0.000000	0.000001	0.000001	0.000000	0.000000
1.780493	12.531547	24.161073	-0.743070	1.121767	2.677774	0.000000	0.142299	0.000000	0.000002	0.000001	0.000000	0.000000
2.221453	13.359164	22.922560	-1.140901	1.676220	2.757279	0.000000	0.218646	0.000000	0.000002	0.000001	0.000000	0.000000
2.662413	14.559208	21.226955	-1.590857	2.154406	2.870966	0.000000	0.297483	0.000000	0.000003	0.000001	0.000000	0.000000
3.108373	16.207252	19.126540	-2.117785	2.535701	3.021992	0.000000	0.380197	0.000000	0.000004	0.000001	0.000000	0.000000
3.657433	18.320592	16.767464	-1.708445	1.786231	3.205470	0.000000	0.287159	0.000000	0.000004	0.000001	0.000000	0.000000
4.206493	19.915099	15.157121	-1.178429	1.163990	3.336390	0.000000	0.189027	0.000000	0.000005	0.000001	0.000000	0.000000
4.755553	20.878144	14.180809	-0.565175	0.624658	3.412428	0.000000	0.087543	0.000000	0.000006	0.000001	0.000000	0.000000
5.304613	21.141702	13.768987	0.088000	0.129819	3.432236	0.000000	-0.015494	0.000000	0.000006	0.000001	0.000000	0.000000
5.603185	21.126359	13.676637	0.018626	0.143512	3.430287	0.000000	-0.006527	0.000000	0.000006	0.000001	0.000000	0.000000
5.936519	21.119203	13.589254	0.002842	0.118638	3.428111	0.000000	-0.006527	0.000000	0.000007	0.000001	0.000000	0.000000
6.269852	21.122569	13.518453	-0.012941	0.093763	3.425935	0.000000	-0.006527	0.000000	0.000007	0.000001	0.000000	0.000000
6.604435	21.136530	13.464064	-0.028784	0.068795	3.423751	0.000000	-0.006527	0.000000	0.000007	0.000001	0.000000	0.000000
6.901758	21.157832	13.429752	-0.098141	0.081696	3.421810	0.000000	0.002413	0.000000	0.000007	0.000001	0.000000	0.000000
7.450818	20.905010	13.600852	0.555880	-0.395159	3.394932	0.000000	-0.100172	0.000000	0.000008	0.000001	0.000000	0.000000
7.999878	19.951404	14.307887	1.170636	-0.900160	3.312135	0.000000	-0.200980	0.000000	0.000008	0.000000	0.000000	0.000000
8.548938	18.364374	15.601216	1.702704	-1.469278	3.174886	0.000000	-0.298223	0.000000	0.000008	0.000000	0.000000	0.000000
9.097998	16.256018	17.572962	2.114501	-2.143049	2.985621	0.000000	-0.390177	0.000000	0.000008	-0.000000	0.000000	0.000000
9.543958	14.611117	19.329886	1.587062	-1.779945	2.829926	0.000000	-0.308466	0.000000	0.000008	-0.000000	0.000000	0.000000
9.984918	13.414710	20.709623	1.136419	-1.337088	2.711151	0.000000	-0.230753	0.000000	0.000008	0.000000	0.000000	0.000000
10.425878	12.591424	21.670376	0.737696	-0.833395	2.626034	0.000000	-0.155668	0.000000	0.000008	0.000000	0.000000	0.000000
10.866838	12.103644	22.168429	0.372676	-0.291783	2.573604	0.000000	-0.082356	0.000000	0.000008	0.000001	0.000000	0.000000
11.309048	11.928952	22.180602	0.053829	0.208656	2.553244	0.000000	-0.016243	0.000000	0.000009	0.000001	0.000000	0.000000
11.606371	11.904375	22.060685	0.028833	0.194667	2.548415	0.000000	-0.016243	0.000000	0.000009	0.000001	0.000000	0.000000
12.086371	11.896066	21.884644	-0.011522	0.172085	2.540618	0.000000	-0.016243	0.000000	0.000009	0.000001	0.000000	0.000000
12.566371	11.926498	21.730282	-0.051877	0.149502	2.532821	0.000000	-0.016243	0.000000	0.000010	0.000001	0.000000	0.000000
13.046371	11.995670	21.597600	-0.092232	0.126919	2.525024	0.000000	-0.016243	0.000000	0.000010	0.000001	0.000000	0.000000
13.526371	12.103583	21.486597	-0.132587	0.104337	2.517227	0.000000	-0.016243	0.000000	0.000011	0.000001	0.000000	0.000000
14.007621	12.250669	21.397070	-0.173047	0.081695	2.509410	0.000000	-0.016243	0.000000	0.000011	0.000001	0.000000	0.000000
14.304943	12.361002	21.352649	-0.167734	0.015350	2.504580	0.000000	-0.022384	0.000000	0.000011	0.000001	0.000000	0.000000
14.745903	12.667474	21.105406	-0.529912	0.543209	2.510342	0.000000	0.048547	0.000000	0.000012	0.000001	0.000000	0.000000
15.186863	13.302785	20.401796	-0.916300	1.046352	2.547475	0.000000	0.120031	0.000000	0.000012	0.000001	0.000000	0.000000
15.627823	14.295963	19.273832	-1.344552	1.501887	2.616399	0.000000	0.192882	0.000000	0.000013	0.000002	0.000000	0.000000
16.068783	15.692383	17.772836	-1.834232	1.889087	2.717902	0.000000	0.267930	0.000000	0.000014	0.000002	0.000000	0.000000
16.514743	17.579498	15.945599	-2.412470	2.191081	2.854833	0.000000	0.346492	0.000000	0.000015	0.000002	0.000000	0.000000
17.063803	20.003227	13.905314	-1.975721	1.546812	3.021343	0.000000	0.259145	0.000000	0.000016	0.000002	0.000000	0.000000
17.612863	21.867415	12.508224	-1.399416	1.012720	3.138559	0.000000	0.167201	0.000000	0.000017	0.000001	0.000000	0.000000
18.161923	23.040386	11.654816	-0.724263	0.550762	3.204403	0.000000	0.072292	0.000000	0.000017	0.000001	0.000000	0.000000
18.710983	23.439287	11.284304	0.002048	0.128033	3.217707	0.000000	-0.023900	0.000000	0.000018	0.000000	0.000000	0.000000
19.009556	23.478446	11.198342	-0.071968	0.130396	3.213081	0.000000	-0.015494	0.000000	0.000018	0.000000	0.000000	0.000000
19.342889	23.531181	11.121502	-0.086239	0.100124	3.207916	0.000000	-0.015494	0.000000	0.000018	0.000000	0.000000	0.000000
19.676223	23.593430	11.064844	-0.100510	0.069851	3.202752	0.000000	-0.015494	0.000000	0.000018	0.000000	0.000000	0.000000
20.010806	23.665774	11.028132	-0.232087	0.094106	3.197587	0.000000	0.000349	0.000000	0.000018	0.000000	0.000000	0.000000
20.308129	23.807720	10.980259	-0.307523	0.095592	3.197691	0.000000	0.008702	0.000000	0.000018	0.000000	0.000000	0.000000
20.857189	23.734793	11.097440	0.439559	-0.310273	3.176244	0.000000	-0.086709	0.000000	0.000018	-0.000000	0.000000	0.000000
21.406249	22.853743	11.669757	1.155593	-0.738237	3.102757	0.000000	-0.180582	0.000000	0.000018	-0.000001	0.000000	0.000000
21.955309	21.226803	12.737975	1.790002	-1.218785	2.978532	0.000000	-0.271252	0.000000	0.000018	-0.000001	0.000000	0.000000
22.504369	18.968893	14.378180	2.297973	-1.786144	2.805774	0.000000	-0.357111	0.000000	0.000017	-0.000002	0.000000	0.000000
22.950329	17.189443	15.850787	1.706267	-1.502031	2.663814	0.000000	-0.279887	0.000000	0.000016	-0.000001	0.000000	0.000000
23.391289	15.913962	17.024885	1.197213	-1.150431	2.556721	0.000000	-0.206306	0.000000	0.000015	-0.000001	0.000000	0.000000
23.832249	15.061703	17.864545	0.742855	-0.746487	2.481525	0.000000	-0.135074	0.000000	0.000015	-0.000001	0.000000	0.000000
24.273209	14.593727	18.331564	0.322437	-0.308579	2.437372	0.000000	-0.065381	0.000000	0.000015	-0.000000	0.000000	0.000000
24.715418	14.488774	18.404448	-0.047812	0.098173	2.423753	0.000000	-0.002375	0.000000	0.000015	0.000000	0.000000	0.000000
25.012741	14.523320	18.350919	-0.068380	0.081863	2.423047	0.000000	-0.002375	0.000000	0.000015	0.000000	0.000000	0.000000
25.346075	14.576593	18.302439	-0.091438	0.063577	2.422255	0.000000	-0.002375	0.000000	0.000015	0.000000	0.000000	0.000000
25.679408	14.645238	18.266150	-0.114497	0.045291	2.421464	0.000000	-0.002375	0.000000	0.000015	0.000000	0.000000	0.000000
26.013991	14.729301	18.242355	-0.018149	-0.121055	2.420645	0.000000	-0.022013	0.000000	0.000015	-0.000000	0.000000	0.000000
26.311314	14.746097	18.319256	-0.002185	-0.182510	2.414100	0.000000	-0.027932	0.000000	0.000015	-0.000000	0.000000	0.000000
26.752274	14.929702	18.281541	-0.415770	0.267715	2.416897	0.000000	0.040629	0.000000	0.000015	0.000000	0.000000	0.000000
27.193234	15.485021	17.850637	-0.848350	0.705760	2.449999	0.000000	0.109652	0.000000	0.000015	0.000001	0.000000	0.000000
27.634194	16.437427	17.046152	-1.319689	1.111693	2.513783	0.000000	0.179924	0.000000	0.000016	0.000001	0.000000	0.000000
28.075154	17.830431	15.904688	-1.851320	1.467045	2.608976	0.000000	0.252245	0.000000	0.000016	0.000002	0.000000	0.000000
28.521114	19.751876	14.460986	-2.472501	1.756560	2.738266	0.000000	0.327882	0.000000	0.000017	0.000002	0.000000	0.000000
29.070174	22.194048	12.852424	-1.949081	1.190399	2.895622	0.000000	0.244460	0.000000	0.000018	0.000001	0.000000	0.000000
29.619234	23.981978	11.815644	-1.287988	0.709028	3.005915	0.000000	0.156702	0.000000	0.000019	0.000001	0.000000	0.000000
30.168294	24.989376	11.276799	-0.535918	0.278160	3.067189	0.000000	0.066165	0.000000	0.000019	0.000000	0.000000	0.000000
30.717354	25.145084	11.197508	0.254007	-0.132896	3.078356	0.000000	-0.025547	0.000000	0.000019	-0.000000	0.000000	0.000000
31.015927	25.036302	11.267444	0.176022	-0.130594	3.073130	0.000000	-0.017505	0.000000	0.000019	-0.000000	0.000000	0.000000
31.349260	24.923529	11.364536	0.162296	-0.160682	3.067295	0.000000	-0.017505	0.000000	0.000019	-0.000000	0.000000	0.000000
31.682593	24.819907	11.481687	0.148569	-0.190770	3.061460	0.000000	-0.017505	0.000000	0.000018	-0.000000	0.000000	0.000000
32.017177	24.725099	11.619449	0.134791	-0.220971	3.055604	0.000000	-0.017505	0.000000	0.000018	-0.000000	0.000000	0.000000
32.314499	24.648586	11.758828	0.058155	-0.217090	3.050399	0.000000	-0.009536	0.000000	0.000018	-0.000000	0.000000	0.000000
32.863559	24.162414	12.236434	0.822065	-0.657904	3.020275	0.000000	-0.100034	0.000000	0.000018	-0.000001	0.000000	0.000000
33.412619	22.864455	13.220844	1.527907	-1.145579	2.940877	0.000000	-0.188758	0.000000	0.000017	-0.000001	0.000000	0.000000
33.961679	20.846388	14.782176	2.125826	-1.714851	2.813613	0.000000	-0.274134	0.000000	0.000016	-0.000002	0.000000	0.000000
34.510739	18.250762	17.031641	2.573587	-2.406269	2.640741	0.000000	-0.354647	0.000000	0.000015	-0.000003	0.000000	0.000000
34.956699	16.232554	19.043706	1.968161	-2.086654	2.498928	0.000000	-0.281702	0.000000	0.000014	-0.000002	0.000000	0.000000
35.397659	14.727609	20.707827	1.457669	-1.672844	2.390094	0.000000	-0.212394	0.000000	0.000013	-0.000002	0.000000	0.000000
35.838619	13.641920	21.971915	1.013773	-1.182920	2.311261	0.000000	-0.145504	0.000000	0.000012	-0.000001	0.000000	0.000000
36.279579	12.925885	22.778456	0.616194	-0.639175	2.261529	0.000000	-0.080272	0.000000	0.000012	-0.000001	0.000000	0.000000
36.721789	12.546098	23.091058	0.277425	-0.123021	2.240307	0.000000	-0.021448	0.000000	0.000011	-0.000001	0.000000	0.000000
37.019112	12.388717	23.168099	0.251903	-0.136092	2.233930	0.000000	-0.021448	0.000000	0.000011	-0.000001	0.000000	0.000000
37.352445	12.230320	23.263711	0.223289	-0.150746	2.226781	0.000000	-0.021448	0.000000	0.000011	-0.000001	0.000000	0.000000
37.685779	12.090998	23.369093	0.194676	-0.165400	2.219632	0.000000	-0.021448	0.000000	0.000011	-0.000001	0.000000	0.000000
38.020362	11.970337	23.484695	0.165955	-0.180109	2.212457	0.000000	-0.021448	0.000000	0.000010	-0.000001	0.000000	0.000000
38.317684	11.879241	23.595682	0.169561	-0.251039	2.206080	0.000000	-0.026857	0.000000	0.000010	-0.000001	0.000000	0.000000
38.758644	11.881151	23.555726	-0.173908	0.341305	2.208167	0.000000	0.036331	0.000000	0.000010	-0.000001	0.000000	0.000000
39.199604	12.188318	22.998249	-0.525322	0.918119	2.238182	0.000000	0.099933	0.000000	0.000009	-0.000000	0.000000	0.000000
39.640564	12.814776	21.948616	-0.900737	1.453160	2.296468	0.000000	0.164674	0.000000	0.000009	-0.000000	0.000000	0.000000
40.081524	13.789147	20.454583	-1.317304	1.922083	2.383687	0.000000	0.231290	0.000000	0.000009	0.000000	0.000000	0.000000
40.527484	15.173522	18.561557	-1.797882	2.304836	2.502305	0.000000	0.300945	0.000000	0.000009	0.000000	0.000000	0.000000
41.076544	16.940143	16.434267	-1.400608	1.592455	2.647008	0.000000	0.225374	0.000000	0.000009	0.000000	0.000000	0.000000
41.625604	18.213268	15.022755	-0.904402	0.993500	2.749058	0.000000	0.145805	0.000000	0.000009	-0.000000	0.000000	0.000000
42.174664	18.902971	14.226481	-0.344314	0.465310	2.806645	0.000000	0.063649	0.000000	0.000009	-0.000001	0.000000	0.000000
42.723724	18.960534	13.988728	0.240095	-0.029737	2.818746	0.000000	-0.019635	0.000000	0.000009	-0.000001	0.000000	0.000000
43.022297	18.851615	13.991035	0.174239	-0.014534	2.815083	0.000000	-0.012271	0.000000	0.000008	-0.000001	0.000000	0.000000
43.502297	18.696938	14.021459	0.148004	-0.048849	2.809194	0.000000	-0.012271	0.000000	0.000008	-0.000001	0.000000	0.000000
43.982297	18.567447	14.084825	0.121769	-0.083164	2.803304	0.000000	-0.012271	0.000000	0.000008	-0.000001	0.000000	0.000000
44.462297	18.463141	14.181134	0.095534	-0.117479	2.797415	0.000000	-0.012271	0.000000	0.000007	-0.000001	0.000000	0.000000
44.942297	18.384021	14.310385	0.069299	-0.151794	2.791525	0.000000	-0.012271	0.000000	0.000007	-0.000001	0.000000	0.000000
45.423547	18.330206	14.472865	-0.047822	-0.114491	2.785638	0.000000	0.001531	0.000000	0.000006	-0.000001	0.000000	0.000000
45.720870	18.363477	14.547134	-0.112058	-0.097297	2.786093	0.000000	0.008810	0.000000	0.000006	-0.000001	0.000000	0.000000
46.269930	18.177325	14.935325	0.449089	-0.613887	2.768356	0.000000	-0.073325	0.000000	0.000006	-0.000001	0.000000	0.000000
46.818990	17.388818	15.911332	0.978513	-1.174202	2.705814	0.000000	-0.154159	0.000000	0.000005	-0.000001	0.000000	0.000000
47.368050	16.053652	17.544674	1.438821	-1.818154	2.599575	0.000000	-0.232259	0.000000	0.000004	-0.000001	0.000000	0.000000
47.917110	14.266137	19.951690	1.797497	-2.591608	2.451523	0.000000	-0.306240	0.000000	0.000004	-0.000001	0.000000	0.000000
48.363070	12.875113	22.091726	1.332723	-2.186935	2.330247	0.000000	-0.237936	0.000000	0.000003	-0.000001	0.000000	0.000000
48.804030	11.879968	23.805188	0.932607	-1.684031	2.239787	0.000000	-0.172739	0.000000	0.000002	-0.000001	0.000000	0.000000
49.244990	11.217643	25.039518	0.575098	-1.104505	2.177617	0.000000	-0.109510	0.000000	0.000002	-0.000001	0.000000	0.000000
49.685950	10.857878	25.738555	0.243865	-0.474725	2.143026	0.000000	-0.047528	0.000000	0.000001	-0.000001	0.000000	0.000000
50.128160	10.784360	25.870211	-0.049898	0.113164	2.135633	0.000000	0.008675	0.000000	0.000001	-0.000001	0.000000	0.000000
50.425482	10.822249	25.806380	-0.077536	0.101524	2.138213	0.000000	0.008675	0.000000	0.000000	-0.000001	0.000000	0.000000
50.758816	10.884268	25.743047	-0.108522	0.088474	2.141105	0.000000	0.008675	0.000000	0.000000	-0.000001	0.000000	0.000000
51.092149	10.966945	25.688414	-0.139508	0.075425	2.143997	0.000000	0.008675	0.000000	-0.000000	-0.000001	0.000000	0.000000
51.426732	11.070481	25.642845	-0.080799	-0.145701	2.146878	0.000000	-0.008742	0.000000	-0.000001	-0.000001	0.000000	0.000000
51.724055	11.126565	25.733006	-0.080546	-0.220648	2.144280	0.000000	-0.014000	0.000000	-0.000001	-0.000001	0.000000	0.000000
52.165015	11.342881	25.641308	-0.411872	0.427809	2.151695	0.000000	0.047664	0.000000	-0.000002	-0.000001	0.000000	0.000000
52.605975	11.858562	24.984154	-0.762015	1.056800	2.186396	0.000000	0.109871	0.000000	-0.000002	-0.000001	0.000000	0.000000
53.046935	12.697168	23.791444	-1.146973	1.637709	2.248777	0.000000	0.173329	0.000000	-0.000003	-0.000001	0.000000	0.000000
53.487895	13.897012	22.117447	-1.584333	2.144103	2.339549	0.000000	0.238761	0.000000	-0.000003	-0.000001	0.000000	0.000000
53.933855	15.533481	20.013297	-2.098304	2.554279	2.461250	0.000000	0.307312	0.000000	-0.000004	-0.000001	0.000000	0.000000
54.482915	17.640394	17.645584	-1.716290	1.783479	2.609803	0.000000	0.233008	0.000000	-0.000005	-0.000001	0.000000	0.000000
55.031975	19.258353	16.049995	-1.213046	1.139712	2.716363	0.000000	0.154571	0.000000	-0.000005	-0.000001	0.000000	0.000000
55.581035	20.273073	15.112880	-0.624118	0.577125	2.779039	0.000000	0.073393	0.000000	-0.000006	-0.000001	0.000000	0.000000
56.130095	20.612879	14.767491	0.008894	0.055644	2.796719	0.000000	-0.009087	0.000000	-0.000007	-0.000001	0.000000	0.000000
56.428668	20.644065	14.717311	-0.059481	0.073834	2.796188	0.000000	-0.001779	0.000000	-0.000007	-0.000001	0.000000	0.000000
56.762001	20.689120	14.675680	-0.075685	0.051061	2.795596	0.000000	-0.001779	0.000000	-0.000007	-0.000001	0.000000	0.000000
57.095334	20.744977	14.649230	-0.091888	0.028289	2.795003	0.000000	-0.001779	0.000000	-0.000007	-0.000001	0.000000	0.000000
57.429918	20.811908	14.637948	-0.108153	0.005431	2.794408	0.000000	-0.001779	0.000000	-0.000008	-0.000001	0.000000	0.000000
57.727240	20.880518	14.640758	-0.177167	0.023374	2.793879	0.000000	0.005521	0.000000	-0.000008	-0.000001	0.000000	0.000000
58.276300	20.718850	14.896217	0.469869	-0.491387	2.774272	0.000000	-0.076836	0.000000	-0.000008	-0.000001	0.000000	0.000000
58.825360	19.860759	15.732733	1.083716	-1.041149	2.709755	0.000000	-0.157830	0.000000	-0.000008	-0.000000	0.000000	0.000000
59.374420	18.366857	17.209890	1.621014	-1.665070	2.601470	0.000000	-0.236025	0.000000	-0.000009	-0.000000	0.000000	0.000000
59.923480	16.342665	19.432903	2.043812	-2.407590	2.451340	0.000000	-0.310033	0.000000	-0.000009	0.000000	0.000000	0.000000
60.369440	14.758357	21.408729	1.521348	-2.004209	2.328367	0.000000	-0.241756	0.000000	-0.000008	0.000000	0.000000	0.000000
60.810400	13.618856	22.964723	1.072593	-1.511014	2.236209	0.000000	-0.176630	0.000000	-0.000008	-0.000000	0.000000	0.000000
61.251360	12.852098	24.053665	0.672842	-0.949069	2.172299	0.000000	-0.113515	0.000000	-0.000009	-0.000000	0.000000	0.000000
61.692320	12.423052	24.626009	0.303831	-0.343942	2.135908	0.000000	-0.051694	0.000000	-0.000009	-0.000001	0.000000	0.000000
62.134530	12.312169	24.655173	-0.021205	0.216313	2.126629	0.000000	0.004324	0.000000	-0.000009	-0.000001	0.000000	0.000000
62.431853	12.331961	24.530297	-0.045364	0.203689	2.127914	0.000000	0.004324	0.000000	-0.000009	-0.000001	0.000000	0.000000
62.765186	12.371233	24.399221	-0.072450	0.189537	2.129356	0.000000	0.004324	0.000000	-0.000010	-0.000001	0.000000	0.000000
63.098520	12.428561	24.277581	-0.099536	0.175385	2.130797	0.000000	0.004324	0.000000	-0.000010	-0.000001	0.000000	0.000000
63.433103	12.504263	24.164972	-0.126723	0.161179	2.132244	0.000000	0.004324	0.000000	-0.000010	-0.000001	0.000000	0.000000
63.730426	12.586802	24.072881	-0.120013	0.089516	2.133530	0.000000	-0.000909	0.000000	-0.000011	-0.000001	0.000000	0.000000
64.171386	12.852941	23.728822	-0.485824	0.687765	2.146668	0.000000	0.060552	0.000000	-0.000011	-0.000001	0.000000	0.000000
64.612346	13.450228	22.868991	-0.873831	1.254722	2.187034	0.000000	0.122702	0.000000	-0.000011	-0.000001	0.000000	0.000000
65.053306	14.405951	21.532511	-1.301760	1.764589	2.255087	0.000000	0.186250	0.000000	-0.000012	-0.000002	0.000000	0.000000
65.494266	15.763773	19.780188	-1.789163	2.194170	2.351603	0.000000	0.251919	0.000000	-0.000013	-0.000002	0.000000	0.000000
65.940226	17.608890	17.666959	-2.363000	2.524670	2.479254	0.000000	0.320859	0.000000	-0.000014	-0.000002	0.000000	0.000000
66.489286	19.974200	15.302924	-1.919427	1.806350	2.635064	0.000000	0.245854	0.000000	-0.000015	-0.000002	0.000000	0.000000
67.038346	21.774629	13.652833	-1.340276	1.216691	2.748432	0.000000	0.166489	0.000000	-0.000016	-0.000001	0.000000	0.000000
67.587406	22.883005	12.599155	-0.666455	0.713695	2.817347	0.000000	0.084170	0.000000	-0.000017	-0.000001	0.000000	0.000000
68.136466	23.221038	12.066839	0.054442	0.261534	2.840588	0.000000	0.000359	0.000000	-0.000017	-0.000000	0.000000	0.000000
68.435038	23.228602	11.899857	-0.019097	0.266198	2.842911	0.000000	0.007782	0.000000	-0.000017	-0.000000	0.000000	0.000000
68.768372	23.246119	11.732391	-0.033453	0.236202	2.845505	0.000000	0.007782	0.000000	-0.000017	-0.000000	0.000000	0.000000
69.101705	23.273206	11.584922	-0.047808	0.206205	2.848099	0.000000	0.007782	0.000000	-0.000017	-0.000000	0.000000	0.000000
69.436288	23.310019	11.457010	-0.062217	0.176096	2.850703	0.000000	0.007782	0.000000	-0.000017	-0.000000	0.000000	0.000000
69.733611	23.350823	11.360250	-0.136042	0.179027	2.853017	0.000000	0.015237	0.000000	-0.000018	-0.000000	0.000000	0.000000
70.282671	23.099175	11.391171	0.591655	-0.235675	2.838204	0.000000	-0.069113	0.000000	-0.000018	0.000000	0.000000	0.000000
