#ParticleID	Turn	x[m]	xp	y[m]	yp	z[m]	dE[GeV]# s	beta_x	beta_y	alpha_x	alpha_y	D_x	D_y	D_px	D_py	orbit_x	orbit_px	orbit_y	orbit_py
0.300000	11.825621	24.970971	-0.012485	-0.027670	2.618149	0.000000	-0.000001	0.000000	-0.000000	0.000000	0.000000	0.000000
0.601250	11.840819	24.991280	-0.037963	-0.039743	2.618148	0.000000	-0.000001	0.000000	-0.000000	0.000000	0.000000	0.000000
0.898573	11.870870	25.018456	-0.033998	-0.113012	2.618148	0.000000	-0.006422	0.000000	-0.000000	0.000000	0.000000	0.000000
1.339533	12.053129	24.840627	-0.380894	0.514753	2.631609	0.000000	0.067536	0.000000	0.000000	0.000000	0.000000	0.000000
1.780493	12.547811	24.117412	-0.745191	1.119098	2.677822	0.000000	0.142264	0.000000	0.000000	0.000000	0.000000	0.000000
2.221453	13.377516	22.881716	-1.143535	1.672524	2.757311	0.000000	0.218611	0.000000	0.000001	0.000001	0.000000	0.000000
2.662413	14.580151	21.189763	-1.594122	2.149851	2.870984	0.000000	0.297448	0.000000	0.000001	0.000001	0.000000	0.000000
3.108373	16.231447	19.093720	-2.121838	2.530493	3.021995	0.000000	0.380163	0.000000	0.000001	0.000001	0.000000	0.000000
3.657433	18.348924	16.739631	-1.711882	1.782305	3.205455	0.000000	0.287125	0.000000	0.000001	0.000001	0.000000	0.000000
4.206493	19.946753	15.133027	-1.181008	1.161067	3.336357	0.000000	0.188994	0.000000	0.000002	0.000000	0.000000	0.000000
4.755553	20.912071	14.159473	-0.566713	0.622528	3.412378	0.000000	0.087511	0.000000	0.000002	0.000000	0.000000	0.000000
5.304613	21.176693	13.749625	0.087612	0.128331	3.432169	0.000000	-0.015524	0.000000	0.000002	0.000000	0.000000	0.000000
5.603185	21.161630	13.658199	0.018168	0.141955	3.430212	0.000000	-0.006557	0.000000	0.000002	0.000000	0.000000	0.000000
5.936519	21.154770	13.571861	0.002411	0.117058	3.428026	0.000000	-0.006557	0.000000	0.000002	0.000000	0.000000	0.000000
6.269852	21.158415	13.502122	-0.013346	0.092161	3.425840	0.000000	-0.006557	0.000000	0.000002	0.000000	0.000000	0.000000
6.604435	21.172638	13.448812	-0.029162	0.067170	3.423647	0.000000	-0.006557	0.000000	0.000003	0.000000	0.000000	0.000000
6.901758	21.194157	13.415472	-0.098592	0.080014	3.421697	0.000000	0.002384	0.000000	0.000003	0.000000	0.000000	0.000000
7.450818	20.941160	13.588205	0.556648	-0.396468	3.394804	0.000000	-0.100197	0.000000	0.000003	0.000000	0.000000	0.000000
7.999878	19.986062	14.296515	1.172569	-0.901189	3.311994	0.000000	-0.201001	0.000000	0.000003	0.000000	0.000000	0.000000
8.548938	18.396328	15.590855	1.705665	-1.470100	3.174736	0.000000	-0.298240	0.000000	0.000003	0.000000	0.000000	0.000000
9.097998	16.284249	17.563418	2.118282	-2.143723	2.985463	0.000000	-0.390188	0.000000	0.000003	-0.000000	0.000000	0.000000
9.543958	14.636357	19.321116	1.590013	-1.781000	2.829761	0.000000	-0.308482	0.000000	0.000003	0.000000	0.000000	0.000000
9.984918	13.437659	20.701933	1.138681	-1.338473	2.710979	0.000000	-0.230773	0.000000	0.000003	0.000000	0.000000	0.000000
10.425878	12.612642	21.664029	0.739373	-0.835046	2.625852	0.000000	-0.155693	0.000000	0.000003	0.000000	0.000000	0.000000
10.866838	12.123614	22.163629	0.373844	-0.293625	2.573411	0.000000	-0.082385	0.000000	0.000003	0.000000	0.000000	0.000000
11.309048	11.948094	22.177485	0.054590	0.206711	2.553037	0.000000	-0.016277	0.000000	0.000003	0.000000	0.000000	0.000000
11.606371	11.923053	22.058722	0.029631	0.192732	2.548197	0.000000	-0.016277	0.000000	0.000003	0.000000	0.000000	0.000000
12.086371	11.913948	21.884532	-0.010662	0.170163	2.540384	0.000000	-0.016277	0.000000	0.000004	0.000000	0.000000	0.000000
12.566371	11.943524	21.732008	-0.050956	0.147595	2.532571	0.000000	-0.016277	0.000000	0.000004	0.000000	0.000000	0.000000
13.046371	12.011783	21.601150	-0.091249	0.125027	2.524757	0.000000	-0.016277	0.000000	0.000004	0.000000	0.000000	0.000000
13.526371	12.118723	21.491957	-0.131543	0.102458	2.516944	0.000000	-0.016277	0.000000	0.000004	0.000000	0.000000	0.000000
14.007621	12.264774	21.404230	-0.171941	0.079831	2.509111	0.000000	-0.016277	0.000000	0.000004	0.000000	0.000000	0.000000
14.304943	12.374439	21.360915	-0.166555	0.013471	2.504271	0.000000	-0.022418	0.000000	0.000004	0.000000	0.000000	0.000000
14.745903	12.679993	21.115219	-0.529001	0.541594	2.510017	0.000000	0.048505	0.000000	0.000005	0.000000	0.000000	0.000000
15.186863	13.314604	20.412889	-0.915616	1.045075	2.547129	0.000000	0.119980	0.000000	0.000005	0.000001	0.000000	0.000000
15.627823	14.307266	19.285881	-1.344063	1.501006	2.616030	0.000000	0.192822	0.000000	0.000005	0.000001	0.000000	0.000000
16.068783	15.703332	17.785472	-1.833916	1.888642	2.717504	0.000000	0.267860	0.000000	0.000006	0.000001	0.000000	0.000000
16.514743	17.590237	15.958428	-2.412313	2.191095	2.854402	0.000000	0.346411	0.000000	0.000006	0.000001	0.000000	0.000000
17.063803	20.013521	13.918269	-1.975074	1.546569	3.020872	0.000000	0.259079	0.000000	0.000006	0.000001	0.000000	0.000000
17.612863	21.876750	12.521594	-1.398325	1.012201	3.138057	0.000000	0.167151	0.000000	0.000007	0.000001	0.000000	0.000000
18.161923	23.048313	11.668923	-0.722805	0.549931	3.203878	0.000000	0.072258	0.000000	0.000007	0.000000	0.000000	0.000000
18.710983	23.445458	11.299521	0.003769	0.126831	3.217169	0.000000	-0.023916	0.000000	0.000007	0.000000	0.000000	0.000000
19.009556	23.483600	11.214238	-0.070262	0.129283	3.212538	0.000000	-0.015511	0.000000	0.000007	0.000000	0.000000	0.000000
19.342889	23.535197	11.138122	-0.084527	0.099062	3.207367	0.000000	-0.015511	0.000000	0.000007	0.000000	0.000000	0.000000
19.676223	23.596303	11.082155	-0.098791	0.068841	3.202197	0.000000	-0.015511	0.000000	0.000007	0.000000	0.000000	0.000000
20.010806	23.667494	11.046101	-0.230371	0.093236	3.197027	0.000000	0.000329	0.000000	0.000007	0.000000	0.000000	0.000000
20.308129	23.808416	10.998731	-0.305803	0.094822	3.197125	0.000000	0.008682	0.000000	0.000008	0.000000	0.000000	0.000000
20.857189	23.733597	11.117046	0.441265	-0.311580	3.175672	0.000000	-0.086711	0.000000	0.000008	-0.000000	0.000000	0.000000
21.406249	22.850736	11.691133	1.157165	-0.740174	3.102188	0.000000	-0.180566	0.000000	0.000007	-0.000000	0.000000	0.000000
21.955309	21.222197	12.761884	1.791328	-1.221490	2.977977	0.000000	-0.271218	0.000000	0.000007	-0.000001	0.000000	0.000000
22.504369	18.963009	14.405565	2.298960	-1.789809	2.805243	0.000000	-0.357059	0.000000	0.000007	-0.000001	0.000000	0.000000
22.950329	17.182672	15.881171	1.707278	-1.505061	2.663303	0.000000	-0.279848	0.000000	0.000007	-0.000001	0.000000	0.000000
23.391289	15.906273	17.057609	1.198294	-1.152690	2.556223	0.000000	-0.206280	0.000000	0.000006	-0.000000	0.000000	0.000000
23.832249	15.053011	17.898883	0.744056	-0.747873	2.481036	0.000000	-0.135061	0.000000	0.000006	-0.000000	0.000000	0.000000
24.273209	14.583904	18.366715	0.323811	-0.309028	2.436885	0.000000	-0.065380	0.000000	0.000006	-0.000000	0.000000	0.000000
24.715418	14.477635	18.439572	-0.046224	0.098591	2.423264	0.000000	-0.002386	0.000000	0.000006	0.000000	0.000000	0.000000
25.012741	14.511241	18.385785	-0.066805	0.082310	2.422554	0.000000	-0.002386	0.000000	0.000006	0.000000	0.000000	0.000000
25.346075	14.563468	18.336996	-0.089878	0.064057	2.421759	0.000000	-0.002386	0.000000	0.000006	0.000000	0.000000	0.000000
25.679408	14.631078	18.300376	-0.112951	0.045805	2.420964	0.000000	-0.002386	0.000000	0.000006	0.000000	0.000000	0.000000
26.013991	14.714111	18.276225	-0.016740	-0.120782	2.420141	0.000000	-0.022020	0.000000	0.000006	0.000000	0.000000	0.000000
26.311314	14.730076	18.352955	-0.000832	-0.182292	2.413594	0.000000	-0.027939	0.000000	0.000006	0.000000	0.000000	0.000000
26.752274	14.912310	18.314644	-0.414002	0.268842	2.416384	0.000000	0.040609	0.000000	0.000006	0.000000	0.000000	0.000000
27.193234	15.465859	17.882365	-0.846087	0.707743	2.449475	0.000000	0.109618	0.000000	0.000006	0.000000	0.000000	0.000000
27.634194	16.416012	17.075784	-1.316826	1.114443	2.513242	0.000000	0.179877	0.000000	0.000007	0.000001	0.000000	0.000000
28.075154	17.806181	15.931601	-1.847728	1.470436	2.608412	0.000000	0.252183	0.000000	0.000007	0.000001	0.000000	0.000000
28.521114	19.724033	14.484643	-2.468007	1.760440	2.737671	0.000000	0.327806	0.000000	0.000007	0.000001	0.000000	0.000000
29.070174	22.161634	12.872337	-1.945302	1.193379	2.894991	0.000000	0.244404	0.000000	0.000008	0.000001	0.000000	0.000000
29.619234	23.945930	11.832680	-1.285190	0.711320	3.005259	0.000000	0.156667	0.000000	0.000008	0.000000	0.000000	0.000000
30.168294	24.950888	11.291620	-0.534299	0.279926	3.066519	0.000000	0.066151	0.000000	0.000008	0.000000	0.000000	0.000000
30.717354	25.105521	11.210619	0.254333	-0.131529	3.077685	0.000000	-0.025539	0.000000	0.000008	-0.000000	0.000000	0.000000
31.015927	24.996493	11.279706	0.176425	-0.129151	3.072461	0.000000	-0.017498	0.000000	0.000008	-0.000000	0.000000	0.000000
31.349260	24.883460	11.375822	0.162674	-0.159196	3.066628	0.000000	-0.017498	0.000000	0.000008	-0.000000	0.000000	0.000000
31.682593	24.779593	11.491967	0.148924	-0.189240	3.060796	0.000000	-0.017498	0.000000	0.000008	-0.000000	0.000000	0.000000
32.017177	24.684556	11.628690	0.135122	-0.219397	3.054941	0.000000	-0.017498	0.000000	0.000008	-0.000000	0.000000	0.000000
32.314499	24.607853	11.767122	0.058566	-0.215453	3.049739	0.000000	-0.009530	0.000000	0.000008	-0.000000	0.000000	0.000000
32.863559	24.121976	12.243018	0.821121	-0.656411	3.019623	0.000000	-0.100007	0.000000	0.000008	-0.000000	0.000000	0.000000
33.412619	22.825771	13.225818	1.525675	-1.144123	2.940245	0.000000	-0.188710	0.000000	0.000007	-0.000001	0.000000	0.000000
33.961679	20.810795	14.785524	2.122464	-1.713329	2.813012	0.000000	-0.274066	0.000000	0.000007	-0.000001	0.000000	0.000000
34.510739	18.219376	17.033231	2.569332	-2.404571	2.640182	0.000000	-0.354560	0.000000	0.000007	-0.000001	0.000000	0.000000
34.956699	16.204533	19.043673	1.964846	-2.084727	2.498404	0.000000	-0.281630	0.000000	0.000006	-0.000001	0.000000	0.000000
35.397659	14.702159	20.706025	1.455133	-1.670776	2.389599	0.000000	-0.212334	0.000000	0.000006	-0.000001	0.000000	0.000000
35.838619	13.618407	21.968263	1.011901	-1.180807	2.310788	0.000000	-0.145458	0.000000	0.000005	-0.000001	0.000000	0.000000
36.279579	12.903763	22.772955	0.614900	-0.637112	2.261075	0.000000	-0.080237	0.000000	0.000005	-0.000000	0.000000	0.000000
36.721789	12.524887	23.083790	0.276600	-0.121088	2.239865	0.000000	-0.021424	0.000000	0.000005	-0.000000	0.000000	0.000000
37.019112	12.368006	23.159681	0.251045	-0.134157	2.233495	0.000000	-0.021424	0.000000	0.000005	-0.000000	0.000000	0.000000
37.352445	12.210192	23.254003	0.222396	-0.148809	2.226354	0.000000	-0.021424	0.000000	0.000005	-0.000000	0.000000	0.000000
37.685779	12.071478	23.358093	0.193746	-0.163461	2.219213	0.000000	-0.021424	0.000000	0.000005	-0.000000	0.000000	0.000000
38.020362	11.951452	23.472397	0.164989	-0.178168	2.212045	0.000000	-0.021424	0.000000	0.000005	-0.000000	0.000000	0.000000
38.317684	11.860940	23.582229	0.168519	-0.249065	2.205675	0.000000	-0.026833	0.000000	0.000004	-0.000000	0.000000	0.000000
38.758644	11.863587	23.540696	-0.174544	0.342895	2.207771	0.000000	0.036346	0.000000	0.000004	-0.000000	0.000000	0.000000
39.199604	12.171147	22.982013	-0.525581	0.919253	2.237790	0.000000	0.099938	0.000000	0.000004	-0.000000	0.000000	0.000000
39.640564	12.797673	21.931601	-0.900631	1.453786	2.296075	0.000000	0.164668	0.000000	0.000004	-0.000000	0.000000	0.000000
40.081524	13.771788	20.437251	-1.316828	1.922173	2.383289	0.000000	0.231274	0.000000	0.000004	0.000000	0.000000	0.000000
40.527484	15.155565	18.544388	-1.797012	2.304383	2.501898	0.000000	0.300919	0.000000	0.000004	0.000000	0.000000	0.000000
41.076544	16.921596	16.417358	-1.400411	1.592433	2.646591	0.000000	0.225361	0.000000	0.000004	0.000000	0.000000	0.000000
41.625604	18.194883	15.005635	-0.904891	0.993908	2.748637	0.000000	0.145805	0.000000	0.000004	-0.000000	0.000000	0.000000
42.174664	18.885486	14.208665	-0.345455	0.466177	2.806228	0.000000	0.063664	0.000000	0.000004	-0.000000	0.000000	0.000000
42.723724	18.944624	13.969681	0.238383	-0.028349	2.818340	0.000000	-0.019607	0.000000	0.000004	-0.000000	0.000000	0.000000
43.022297	18.836705	13.971196	0.172563	-0.013224	2.814685	0.000000	-0.012244	0.000000	0.000004	-0.000000	0.000000	0.000000
43.502297	18.683640	14.000385	0.146322	-0.047586	2.808808	0.000000	-0.012244	0.000000	0.000004	-0.000000	0.000000	0.000000
43.982297	18.555766	14.062562	0.120081	-0.081949	2.802931	0.000000	-0.012244	0.000000	0.000004	-0.000000	0.000000	0.000000
44.462297	18.453084	14.157727	0.093840	-0.116311	2.797054	0.000000	-0.012244	0.000000	0.000003	-0.000000	0.000000	0.000000
44.942297	18.375593	14.285879	0.067599	-0.150674	2.791177	0.000000	-0.012244	0.000000	0.000003	-0.000000	0.000000	0.000000
45.423547	18.323417	14.447303	-0.049494	-0.113545	2.785302	0.000000	0.001556	0.000000	0.000003	-0.000000	0.000000	0.000000
45.720870	18.357684	14.521020	-0.113724	-0.096450	2.785765	0.000000	0.008835	0.000000	0.000003	-0.000000	0.000000	0.000000
46.269930	18.173455	14.907839	0.447275	-0.612221	2.768044	0.000000	-0.073290	0.000000	0.000003	-0.000000	0.000000	0.000000
46.818990	17.386962	15.881516	0.976681	-1.171599	2.705523	0.000000	-0.154115	0.000000	0.000003	-0.000001	0.000000	0.000000
47.368050	16.053759	17.511403	1.437099	-1.814427	2.599310	0.000000	-0.232206	0.000000	0.000002	-0.000001	0.000000	0.000000
47.917110	14.268019	19.913593	1.796008	-2.586493	2.451290	0.000000	-0.306178	0.000000	0.000002	-0.000001	0.000000	0.000000
48.363070	12.878272	22.049424	1.331336	-2.182662	2.330039	0.000000	-0.237880	0.000000	0.000002	-0.000001	0.000000	0.000000
48.804030	11.884330	23.759560	0.931256	-1.680792	2.239603	0.000000	-0.172689	0.000000	0.000001	-0.000001	0.000000	0.000000
49.244990	11.223202	24.991545	0.573724	-1.102446	2.177454	0.000000	-0.109464	0.000000	0.000001	-0.000001	0.000000	0.000000
49.685950	10.864683	25.689324	0.242403	-0.473941	2.142883	0.000000	-0.047486	0.000000	0.000001	-0.000001	0.000000	0.000000
50.128160	10.792522	25.820867	-0.051494	0.112759	2.135507	0.000000	0.008714	0.000000	0.000001	-0.000000	0.000000	0.000000
50.425482	10.831355	25.757283	-0.079116	0.101098	2.138098	0.000000	0.008714	0.000000	0.000001	-0.000000	0.000000	0.000000
50.758816	10.894421	25.694242	-0.110083	0.088024	2.141003	0.000000	0.008714	0.000000	0.000000	-0.000000	0.000000	0.000000
51.092149	10.978133	25.639918	-0.141051	0.074950	2.143908	0.000000	0.008714	0.000000	0.000000	-0.000000	0.000000	0.000000
51.426732	11.082694	25.594673	-0.082224	-0.145809	2.146802	0.000000	-0.008702	0.000000	0.000000	-0.000000	0.000000	0.000000
51.724055	11.139619	25.684905	-0.081916	-0.220659	2.144215	0.000000	-0.013960	0.000000	-0.000000	-0.000000	0.000000	0.000000
52.165015	11.357284	25.593778	-0.413574	0.426528	2.151648	0.000000	0.047703	0.000000	-0.000000	-0.000000	0.000000	0.000000
52.605975	11.874641	24.938294	-0.764128	1.054309	2.186365	0.000000	0.109908	0.000000	-0.000001	-0.000001	0.000000	0.000000
53.046935	12.715326	23.748276	-1.149592	1.634120	2.248762	0.000000	0.173366	0.000000	-0.000001	-0.000001	0.000000	0.000000
53.487895	13.917747	22.077869	-1.587578	2.139579	2.339550	0.000000	0.238798	0.000000	-0.000001	-0.000001	0.000000	0.000000
53.933855	15.557448	19.978098	-2.102332	2.549025	2.461267	0.000000	0.307349	0.000000	-0.000001	-0.000001	0.000000	0.000000
54.482915	17.668473	17.615390	-1.719708	1.779564	2.609840	0.000000	0.233044	0.000000	-0.000002	-0.000001	0.000000	0.000000
55.031975	19.289738	16.023497	-1.215613	1.136857	2.716419	0.000000	0.154606	0.000000	-0.000002	-0.000000	0.000000	0.000000
55.581035	20.306724	15.089032	-0.625653	0.575126	2.779113	0.000000	0.073426	0.000000	-0.000002	-0.000000	0.000000	0.000000
56.130095	20.647596	14.745435	0.008499	0.054360	2.796811	0.000000	-0.009057	0.000000	-0.000002	-0.000000	0.000000	0.000000
56.428668	20.679063	14.696065	-0.059940	0.072464	2.796288	0.000000	-0.001750	0.000000	-0.000002	-0.000000	0.000000	0.000000
56.762001	20.724415	14.655356	-0.076118	0.049663	2.795705	0.000000	-0.001750	0.000000	-0.000003	-0.000000	0.000000	0.000000
57.095334	20.780553	14.629847	-0.092295	0.026863	2.795122	0.000000	-0.001750	0.000000	-0.000003	-0.000000	0.000000	0.000000
57.429918	20.847747	14.619529	-0.108533	0.003976	2.794537	0.000000	-0.001750	0.000000	-0.000003	-0.000000	0.000000	0.000000
57.727240	20.916575	14.623212	-0.177615	0.021847	2.794017	0.000000	0.005551	0.000000	-0.000003	-0.000000	0.000000	0.000000
58.276300	20.754733	14.880079	0.470632	-0.492439	2.774425	0.000000	-0.076811	0.000000	-0.000003	-0.000000	0.000000	0.000000
58.825360	19.895161	15.717526	1.085635	-1.041801	2.709920	0.000000	-0.157810	0.000000	-0.000003	-0.000000	0.000000	0.000000
59.374420	18.398574	17.195202	1.623955	-1.665368	2.601645	0.000000	-0.236010	0.000000	-0.000003	-0.000000	0.000000	0.000000
59.923480	16.370685	19.418359	2.047567	-2.407556	2.451521	0.000000	-0.310024	0.000000	-0.000003	0.000000	0.000000	0.000000
60.369440	14.783405	21.394373	1.524278	-2.004664	2.328553	0.000000	-0.241742	0.000000	-0.000003	-0.000000	0.000000	0.000000
60.810400	13.641630	22.950975	1.074840	-1.511934	2.236402	0.000000	-0.176611	0.000000	-0.000003	-0.000000	0.000000	0.000000
61.251360	12.873153	24.040919	0.674508	-0.950412	2.172501	0.000000	-0.113492	0.000000	-0.000003	-0.000000	0.000000	0.000000
61.692320	12.442864	24.614612	0.304992	-0.345646	2.136122	0.000000	-0.051665	0.000000	-0.000003	-0.000000	0.000000	0.000000
62.134530	12.331158	24.645415	-0.020450	0.214352	2.126856	0.000000	0.004358	0.000000	-0.000004	-0.000000	0.000000	0.000000
62.431853	12.350490	24.521703	-0.044572	0.201733	2.128152	0.000000	0.004358	0.000000	-0.000004	-0.000000	0.000000	0.000000
62.765186	12.389219	24.391930	-0.071615	0.187587	2.129605	0.000000	0.004358	0.000000	-0.000004	-0.000000	0.000000	0.000000
63.098520	12.445976	24.271588	-0.098658	0.173440	2.131057	0.000000	0.004358	0.000000	-0.000004	-0.000000	0.000000	0.000000
63.433103	12.521077	24.160278	-0.125802	0.159240	2.132516	0.000000	0.004358	0.000000	-0.000004	-0.000000	0.000000	0.000000
63.730426	12.603057	24.069339	-0.119016	0.087595	2.133812	0.000000	-0.000875	0.000000	-0.000004	-0.000000	0.000000	0.000000
64.171386	12.868473	23.727000	-0.485173	0.685800	2.146966	0.000000	0.060593	0.000000	-0.000004	-0.000000	0.000000	0.000000
64.612346	13.465326	22.868888	-0.873495	1.252802	2.187351	0.000000	0.122751	0.000000	-0.000005	-0.000001	0.000000	0.000000
65.053306	14.420886	21.534047	-1.301725	1.762803	2.255428	0.000000	0.186307	0.000000	-0.000005	-0.000001	0.000000	0.000000
65.494266	15.778809	19.783211	-1.789427	2.192598	2.351971	0.000000	0.251986	0.000000	-0.000005	-0.000001	0.000000	0.000000
65.940226	17.624300	17.671260	-2.363576	2.523387	2.479653	0.000000	0.320936	0.000000	-0.000006	-0.000001	0.000000	0.000000
66.489286	19.989912	15.308585	-1.919397	1.805140	2.635501	0.000000	0.245918	0.000000	-0.000006	-0.000001	0.000000	0.000000
67.038346	21.789974	13.659821	-1.339641	1.215470	2.748900	0.000000	0.166537	0.000000	-0.000006	-0.000001	0.000000	0.000000
67.587406	22.897340	12.607530	-0.665259	0.712375	2.817837	0.000000	0.084203	0.000000	-0.000007	-0.000000	0.000000	0.000000
68.136466	23.233789	12.076760	0.056112	0.260020	2.841091	0.000000	0.000376	0.000000	-0.000007	-0.000000	0.000000	0.000000
68.435038	23.240371	11.910656	-0.017448	0.264752	2.843420	0.000000	0.007799	0.000000	-0.000007	-0.000000	0.000000	0.000000
68.768372	23.256785	11.744137	-0.031795	0.234804	2.846020	0.000000	0.007799	0.000000	-0.000007	-0.000000	0.000000	0.000000
69.101705	23.282765	11.597584	-0.046142	0.204856	2.848620	0.000000	0.007799	0.000000	-0.000007	-0.000000	0.000000	0.000000
69.436288	23.318460	11.470559	-0.060543	0.174796	2.851229	0.000000	0.007799	0.000000	-0.000007	-0.000000	0.000000	0.000000
69.733611	23.358266	11.374559	-0.134375	0.177805	2.853548	0.000000	0.015256	0.000000	-0.000007	-0.000000	0.000000	0.000000
70.282671	23.104668	11.407047	0.593519	-0.237323	2.838741	0.000000	-0.069112	0.000000	-0.000007	0.000000	0.000000	0.000000
