#ParticleID	Turn	x[m]	xp	y[m]	yp	z[m]	dE[GeV]# s	beta_x	beta_y	alpha_x	alpha_y	D_x	D_y	D_px	D_py	orbit_x	orbit_px	orbit_y	orbit_py
0.300000	11.824629	24.974774	-0.012351	-0.027648	2.618127	0.000000	0.000006	0.000000	0.000001	0.000000	0.000000	0.000000
0.601250	11.839747	24.995068	-0.037832	-0.039719	2.618129	0.000000	0.000006	0.000000	0.000001	0.000000	0.000000	0.000000
0.898573	11.869720	25.022229	-0.033872	-0.112994	2.618130	0.000000	-0.006414	0.000000	0.000001	0.000000	0.000000	0.000000
1.339533	12.051856	24.844341	-0.380738	0.514870	2.631595	0.000000	0.067543	0.000000	0.000001	0.000001	0.000000	0.000000
1.780493	12.546385	24.120981	-0.744999	1.119308	2.677810	0.000000	0.142270	0.000000	0.000001	0.000001	0.000000	0.000000
2.221453	13.375901	22.885062	-1.143297	1.672819	2.757303	0.000000	0.218617	0.000000	0.000002	0.000001	0.000000	0.000000
2.662413	14.578302	21.192816	-1.593828	2.150217	2.870978	0.000000	0.297455	0.000000	0.000002	0.000001	0.000000	0.000000
3.108373	16.229305	19.096421	-2.121473	2.530914	3.021992	0.000000	0.380169	0.000000	0.000002	0.000001	0.000000	0.000000
3.657433	18.346409	16.741929	-1.711572	1.782621	3.205456	0.000000	0.287131	0.000000	0.000003	0.000001	0.000000	0.000000
4.206493	19.943937	15.135025	-1.180773	1.161300	3.336360	0.000000	0.189001	0.000000	0.000003	0.000001	0.000000	0.000000
4.755553	20.909047	14.161251	-0.566571	0.622697	3.412385	0.000000	0.087517	0.000000	0.000003	0.000000	0.000000	0.000000
5.304613	21.173568	13.751249	0.087652	0.128446	3.432179	0.000000	-0.015518	0.000000	0.000003	0.000000	0.000000	0.000000
5.603185	21.158477	13.659751	0.018215	0.142076	3.430223	0.000000	-0.006551	0.000000	0.000004	0.000000	0.000000	0.000000
5.936519	21.151587	13.573332	0.002455	0.117181	3.428040	0.000000	-0.006551	0.000000	0.000004	0.000000	0.000000	0.000000
6.269852	21.155203	13.503510	-0.013304	0.092285	3.425856	0.000000	-0.006551	0.000000	0.000004	0.000000	0.000000	0.000000
6.604435	21.169399	13.450116	-0.029123	0.067297	3.423664	0.000000	-0.006551	0.000000	0.000004	0.000000	0.000000	0.000000
6.901758	21.190896	13.416701	-0.098546	0.080145	3.421716	0.000000	0.002389	0.000000	0.000004	0.000000	0.000000	0.000000
7.450818	20.937907	13.589308	0.556585	-0.396369	3.394826	0.000000	-0.100193	0.000000	0.000004	0.000000	0.000000	0.000000
7.999878	19.982938	14.297524	1.172400	-0.901116	3.312019	0.000000	-0.200997	0.000000	0.000004	0.000000	0.000000	0.000000
8.548938	18.393441	15.591795	1.705404	-1.470047	3.174762	0.000000	-0.298236	0.000000	0.000004	-0.000000	0.000000	0.000000
9.097998	16.281692	17.564309	2.117946	-2.143687	2.985491	0.000000	-0.390186	0.000000	0.000004	-0.000000	0.000000	0.000000
9.543958	14.634066	19.321959	1.589751	-1.780930	2.829791	0.000000	-0.308479	0.000000	0.000004	-0.000000	0.000000	0.000000
9.984918	13.435571	20.702701	1.138481	-1.338373	2.711010	0.000000	-0.230769	0.000000	0.000004	0.000000	0.000000	0.000000
10.425878	12.610707	21.664697	0.739226	-0.834921	2.625885	0.000000	-0.155688	0.000000	0.000004	0.000000	0.000000	0.000000
10.866838	12.121787	22.164178	0.373743	-0.293480	2.573446	0.000000	-0.082380	0.000000	0.000004	0.000000	0.000000	0.000000
11.309048	11.946337	22.177899	0.054526	0.206868	2.553075	0.000000	-0.016271	0.000000	0.000004	0.000000	0.000000	0.000000
11.606371	11.921335	22.059042	0.029564	0.192888	2.548237	0.000000	-0.016271	0.000000	0.000004	0.000000	0.000000	0.000000
12.086371	11.912297	21.884703	-0.010735	0.170319	2.540427	0.000000	-0.016271	0.000000	0.000005	0.000000	0.000000	0.000000
12.566371	11.941946	21.732030	-0.051034	0.147750	2.532617	0.000000	-0.016271	0.000000	0.000005	0.000000	0.000000	0.000000
13.046371	12.010282	21.601023	-0.091333	0.125180	2.524807	0.000000	-0.016271	0.000000	0.000005	0.000000	0.000000	0.000000
13.526371	12.117306	21.491683	-0.131632	0.102611	2.516997	0.000000	-0.016271	0.000000	0.000005	0.000000	0.000000	0.000000
14.007621	12.263446	21.403810	-0.172036	0.079983	2.509166	0.000000	-0.016271	0.000000	0.000005	0.000000	0.000000	0.000000
14.304943	12.373169	21.360405	-0.166657	0.013624	2.504329	0.000000	-0.022412	0.000000	0.000005	0.000000	0.000000	0.000000
14.745903	12.678801	21.114581	-0.529078	0.541729	2.510078	0.000000	0.048513	0.000000	0.000005	0.000000	0.000000	0.000000
15.186863	13.313470	20.412142	-0.915671	1.045187	2.547194	0.000000	0.119990	0.000000	0.000006	0.000001	0.000000	0.000000
15.627823	14.306171	19.285046	-1.344098	1.501090	2.616099	0.000000	0.192833	0.000000	0.000006	0.000001	0.000000	0.000000
16.068783	15.702259	17.784578	-1.833933	1.888694	2.717579	0.000000	0.267873	0.000000	0.000006	0.000001	0.000000	0.000000
16.514743	17.589172	15.957503	-2.412312	2.191112	2.854483	0.000000	0.346426	0.000000	0.000007	0.000001	0.000000	0.000000
17.063803	20.012481	13.917316	-1.975120	1.546602	3.020961	0.000000	0.259091	0.000000	0.000007	0.000001	0.000000	0.000000
17.612863	21.875784	12.520595	-1.398414	1.012254	3.138151	0.000000	0.167160	0.000000	0.000008	0.000001	0.000000	0.000000
18.161923	23.047466	11.667855	-0.722932	0.550006	3.203977	0.000000	0.072264	0.000000	0.000008	0.000000	0.000000	0.000000
18.710983	23.444766	11.298356	0.003615	0.126934	3.217270	0.000000	-0.023913	0.000000	0.000008	0.000000	0.000000	0.000000
19.009556	23.483000	11.213014	-0.070415	0.129379	3.212640	0.000000	-0.015508	0.000000	0.000008	0.000000	0.000000	0.000000
19.342889	23.534698	11.136836	-0.084680	0.099154	3.207471	0.000000	-0.015508	0.000000	0.000008	0.000000	0.000000	0.000000
19.676223	23.595907	11.080809	-0.098945	0.068929	3.202302	0.000000	-0.015508	0.000000	0.000008	0.000000	0.000000	0.000000
20.010806	23.667202	11.044698	-0.230524	0.093313	3.197133	0.000000	0.000333	0.000000	0.000008	0.000000	0.000000	0.000000
20.308129	23.808216	10.997283	-0.305957	0.094891	3.197232	0.000000	0.008686	0.000000	0.000008	0.000000	0.000000	0.000000
20.857189	23.733568	11.115500	0.441108	-0.311468	3.175780	0.000000	-0.086710	0.000000	0.000008	-0.000000	0.000000	0.000000
21.406249	22.850877	11.689438	1.157015	-0.740013	3.102296	0.000000	-0.180569	0.000000	0.000008	-0.000000	0.000000	0.000000
21.955309	21.222491	12.759979	1.791197	-1.221266	2.978083	0.000000	-0.271224	0.000000	0.000008	-0.000001	0.000000	0.000000
22.504369	18.963433	14.403374	2.298857	-1.789508	2.805344	0.000000	-0.357068	0.000000	0.000007	-0.000001	0.000000	0.000000
22.950329	17.183187	15.878733	1.707176	-1.504810	2.663400	0.000000	-0.279856	0.000000	0.000007	-0.000001	0.000000	0.000000
23.391289	15.906880	17.054977	1.198188	-1.152501	2.556318	0.000000	-0.206285	0.000000	0.000007	-0.000000	0.000000	0.000000
23.832249	15.053715	17.896114	0.743941	-0.747754	2.481129	0.000000	-0.135063	0.000000	0.000007	-0.000000	0.000000	0.000000
24.273209	14.584715	18.363873	0.323683	-0.308984	2.436978	0.000000	-0.065380	0.000000	0.000007	-0.000000	0.000000	0.000000
24.715418	14.478567	18.436726	-0.046370	0.098565	2.423357	0.000000	-0.002384	0.000000	0.000007	0.000000	0.000000	0.000000
25.012741	14.512259	18.382956	-0.066949	0.082281	2.422648	0.000000	-0.002384	0.000000	0.000007	0.000000	0.000000	0.000000
25.346075	14.564583	18.334187	-0.090021	0.064026	2.421854	0.000000	-0.002384	0.000000	0.000007	0.000000	0.000000	0.000000
25.679408	14.632288	18.297588	-0.113093	0.045770	2.421059	0.000000	-0.002384	0.000000	0.000007	0.000000	0.000000	0.000000
26.013991	14.715416	18.273461	-0.016871	-0.120797	2.420237	0.000000	-0.022018	0.000000	0.000007	-0.000000	0.000000	0.000000
26.311314	14.731457	18.350201	-0.000958	-0.182302	2.413690	0.000000	-0.027937	0.000000	0.000007	-0.000000	0.000000	0.000000
26.752274	14.913818	18.311932	-0.414164	0.268757	2.416482	0.000000	0.040613	0.000000	0.000007	0.000000	0.000000	0.000000
27.193234	15.467527	17.879758	-0.846292	0.707588	2.449575	0.000000	0.109625	0.000000	0.000007	0.000000	0.000000	0.000000
27.634194	16.417884	17.073343	-1.317084	1.114224	2.513345	0.000000	0.179886	0.000000	0.000007	0.000000	0.000000	0.000000
28.075154	17.808307	15.929377	-1.848050	1.470164	2.608520	0.000000	0.252195	0.000000	0.000007	0.000001	0.000000	0.000000
28.521114	19.726481	14.482682	-2.468409	1.760126	2.737785	0.000000	0.327821	0.000000	0.000007	0.000001	0.000000	0.000000
29.070174	22.164492	12.870677	-1.945641	1.193139	2.895112	0.000000	0.244415	0.000000	0.000008	0.000001	0.000000	0.000000
29.619234	23.949116	11.831250	-1.285443	0.711137	3.005385	0.000000	0.156673	0.000000	0.000008	0.000000	0.000000	0.000000
30.168294	24.954296	11.290366	-0.534448	0.279787	3.066648	0.000000	0.066153	0.000000	0.000008	0.000000	0.000000	0.000000
30.717354	25.109032	11.209498	0.254298	-0.131634	3.077814	0.000000	-0.025540	0.000000	0.000008	-0.000000	0.000000	0.000000
31.015927	25.000029	11.278650	0.176382	-0.129262	3.072589	0.000000	-0.017499	0.000000	0.000008	-0.000000	0.000000	0.000000
31.349260	24.887024	11.374841	0.162634	-0.159310	3.066756	0.000000	-0.017499	0.000000	0.000008	-0.000000	0.000000	0.000000
31.682593	24.783184	11.491064	0.148886	-0.189358	3.060923	0.000000	-0.017499	0.000000	0.000008	-0.000000	0.000000	0.000000
32.017177	24.688171	11.627868	0.135086	-0.219519	3.055069	0.000000	-0.017499	0.000000	0.000008	-0.000000	0.000000	0.000000
32.314499	24.611489	11.766373	0.058522	-0.215580	3.049866	0.000000	-0.009531	0.000000	0.000008	-0.000000	0.000000	0.000000
32.863559	24.125593	12.242400	0.821198	-0.656524	3.019749	0.000000	-0.100012	0.000000	0.000008	-0.000000	0.000000	0.000000
33.412619	22.829238	13.225320	1.525869	-1.144230	2.940367	0.000000	-0.188719	0.000000	0.000007	-0.000001	0.000000	0.000000
33.961679	20.813992	14.785144	2.122759	-1.713437	2.813128	0.000000	-0.274079	0.000000	0.000007	-0.000001	0.000000	0.000000
34.510739	18.222203	17.032974	2.569709	-2.404689	2.640290	0.000000	-0.354577	0.000000	0.000006	-0.000001	0.000000	0.000000
34.956699	16.207062	19.043531	1.965138	-2.084866	2.498506	0.000000	-0.281643	0.000000	0.000006	-0.000001	0.000000	0.000000
35.397659	14.704461	20.706013	1.455356	-1.670930	2.389695	0.000000	-0.212346	0.000000	0.000005	-0.000001	0.000000	0.000000
35.838619	13.620540	21.968390	1.012064	-1.180968	2.310880	0.000000	-0.145466	0.000000	0.000005	-0.000001	0.000000	0.000000
36.279579	12.905776	22.773225	0.615011	-0.637274	2.261163	0.000000	-0.080244	0.000000	0.000005	-0.000001	0.000000	0.000000
36.721789	12.526822	23.084201	0.276669	-0.121244	2.239951	0.000000	-0.021428	0.000000	0.000005	-0.000000	0.000000	0.000000
37.019112	12.369900	23.160184	0.251117	-0.134314	2.233580	0.000000	-0.021428	0.000000	0.000005	-0.000000	0.000000	0.000000
37.352445	12.212037	23.254611	0.222471	-0.148966	2.226437	0.000000	-0.021428	0.000000	0.000004	-0.000000	0.000000	0.000000
37.685779	12.073272	23.358806	0.193824	-0.163618	2.219294	0.000000	-0.021428	0.000000	0.000004	-0.000000	0.000000	0.000000
38.020362	11.953191	23.473214	0.165071	-0.178325	2.212125	0.000000	-0.021428	0.000000	0.000004	-0.000000	0.000000	0.000000
38.317684	11.862630	23.583140	0.168609	-0.249225	2.205754	0.000000	-0.026837	0.000000	0.000004	-0.000000	0.000000	0.000000
38.758644	11.865215	23.541737	-0.174492	0.342761	2.207848	0.000000	0.036343	0.000000	0.000004	-0.000000	0.000000	0.000000
39.199604	12.172745	22.983158	-0.525565	0.919152	2.237867	0.000000	0.099937	0.000000	0.000004	-0.000000	0.000000	0.000000
39.640564	12.799271	21.932819	-0.900649	1.453722	2.296152	0.000000	0.164669	0.000000	0.000004	-0.000000	0.000000	0.000000
40.081524	13.773417	20.438508	-1.316881	1.922149	2.383367	0.000000	0.231277	0.000000	0.000004	-0.000000	0.000000	0.000000
40.527484	15.157258	18.545649	-1.797103	2.304400	2.501978	0.000000	0.300924	0.000000	0.000004	0.000000	0.000000	0.000000
41.076544	16.923355	16.418616	-1.400439	1.592420	2.646673	0.000000	0.225364	0.000000	0.000004	-0.000000	0.000000	0.000000
41.625604	18.196636	15.006924	-0.904855	0.993864	2.748720	0.000000	0.145805	0.000000	0.000004	-0.000000	0.000000	0.000000
42.174664	18.887165	14.210020	-0.345356	0.466099	2.806310	0.000000	0.063661	0.000000	0.000003	-0.000000	0.000000	0.000000
42.723724	18.946164	13.971143	0.238536	-0.028466	2.818420	0.000000	-0.019613	0.000000	0.000003	-0.000000	0.000000	0.000000
43.022297	18.838156	13.972725	0.172713	-0.013335	2.814763	0.000000	-0.012249	0.000000	0.000003	-0.000000	0.000000	0.000000
43.502297	18.684947	14.002019	0.146472	-0.047694	2.808884	0.000000	-0.012249	0.000000	0.000003	-0.000000	0.000000	0.000000
43.982297	18.556929	14.064297	0.120232	-0.082053	2.803005	0.000000	-0.012249	0.000000	0.000003	-0.000000	0.000000	0.000000
44.462297	18.454102	14.159560	0.093992	-0.116411	2.797126	0.000000	-0.012249	0.000000	0.000003	-0.000000	0.000000	0.000000
44.942297	18.376465	14.287807	0.067752	-0.150770	2.791246	0.000000	-0.012249	0.000000	0.000002	-0.000000	0.000000	0.000000
45.423547	18.324142	14.449322	-0.049345	-0.113627	2.785369	0.000000	0.001552	0.000000	0.000002	-0.000000	0.000000	0.000000
45.720870	18.358320	14.523087	-0.113576	-0.096525	2.785830	0.000000	0.008830	0.000000	0.000002	-0.000000	0.000000	0.000000
46.269930	18.173917	14.910024	0.447440	-0.612361	2.768107	0.000000	-0.073296	0.000000	0.000002	-0.000000	0.000000	0.000000
46.818990	17.387239	15.883894	0.976852	-1.171814	2.705581	0.000000	-0.154123	0.000000	0.000002	-0.000000	0.000000	0.000000
47.368050	16.053852	17.514065	1.437263	-1.814732	2.599364	0.000000	-0.232216	0.000000	0.000001	-0.000001	0.000000	0.000000
47.917110	14.267940	19.916649	1.796154	-2.586911	2.451337	0.000000	-0.306190	0.000000	0.000001	-0.000001	0.000000	0.000000
48.363070	12.878069	22.052825	1.331470	-2.183012	2.330081	0.000000	-0.237891	0.000000	0.000001	-0.000001	0.000000	0.000000
48.804030	11.884011	23.763234	0.931385	-1.681059	2.239641	0.000000	-0.172698	0.000000	0.000000	-0.000001	0.000000	0.000000
49.244990	11.222770	24.995414	0.573853	-1.102620	2.177487	0.000000	-0.109473	0.000000	0.000000	-0.000001	0.000000	0.000000
49.685950	10.864135	25.693301	0.242538	-0.474011	2.142913	0.000000	-0.047494	0.000000	0.000000	-0.000001	0.000000	0.000000
50.128160	10.791849	25.824860	-0.051347	0.112784	2.135534	0.000000	0.008707	0.000000	-0.000000	-0.000001	0.000000	0.000000
50.425482	10.830595	25.761260	-0.078971	0.101125	2.138123	0.000000	0.008707	0.000000	-0.000000	-0.000001	0.000000	0.000000
50.758816	10.893565	25.698201	-0.109940	0.088053	2.141025	0.000000	0.008707	0.000000	-0.000001	-0.000001	0.000000	0.000000
51.092149	10.977181	25.643856	-0.140908	0.074981	2.143928	0.000000	0.008707	0.000000	-0.000001	-0.000001	0.000000	0.000000
51.426732	11.081648	25.598590	-0.082092	-0.145808	2.146819	0.000000	-0.008709	0.000000	-0.000001	-0.000001	0.000000	0.000000
51.724055	11.138495	25.688821	-0.081788	-0.220667	2.144230	0.000000	-0.013968	0.000000	-0.000001	-0.000001	0.000000	0.000000
52.165015	11.356035	25.597655	-0.413418	0.426624	2.151660	0.000000	0.047695	0.000000	-0.000001	-0.000001	0.000000	0.000000
52.605975	11.873239	24.942042	-0.763935	1.054504	2.186374	0.000000	0.109901	0.000000	-0.000002	-0.000001	0.000000	0.000000
53.046935	12.713734	23.751811	-1.149355	1.634405	2.248768	0.000000	0.173359	0.000000	-0.000002	-0.000001	0.000000	0.000000
53.487895	13.915922	22.081117	-1.587285	2.139942	2.339553	0.000000	0.238792	0.000000	-0.000002	-0.000001	0.000000	0.000000
53.933855	15.555331	19.980995	-2.101968	2.549448	2.461267	0.000000	0.307342	0.000000	-0.000002	-0.000001	0.000000	0.000000
54.482915	17.665984	17.617884	-1.719398	1.779878	2.609836	0.000000	0.233038	0.000000	-0.000003	-0.000001	0.000000	0.000000
55.031975	19.286948	16.025695	-1.215378	1.137084	2.716412	0.000000	0.154600	0.000000	-0.000003	-0.000001	0.000000	0.000000
55.581035	20.303724	15.091020	-0.625510	0.575283	2.779102	0.000000	0.073420	0.000000	-0.000003	-0.000000	0.000000	0.000000
56.130095	20.644494	14.747284	0.008541	0.054457	2.796796	0.000000	-0.009063	0.000000	-0.000004	-0.000000	0.000000	0.000000
56.428668	20.675931	14.697853	-0.059893	0.072569	2.796273	0.000000	-0.001755	0.000000	-0.000004	-0.000000	0.000000	0.000000
56.762001	20.721253	14.657073	-0.076072	0.049771	2.795688	0.000000	-0.001755	0.000000	-0.000004	-0.000000	0.000000	0.000000
57.095334	20.777361	14.631492	-0.092252	0.026972	2.795103	0.000000	-0.001755	0.000000	-0.000004	-0.000000	0.000000	0.000000
57.429918	20.844527	14.621100	-0.108492	0.004088	2.794515	0.000000	-0.001755	0.000000	-0.000004	-0.000000	0.000000	0.000000
57.727240	20.913333	14.624715	-0.177569	0.021966	2.793994	0.000000	0.005545	0.000000	-0.000004	-0.000000	0.000000	0.000000
58.276300	20.751500	14.881475	0.470569	-0.492362	2.774399	0.000000	-0.076816	0.000000	-0.000004	-0.000000	0.000000	0.000000
58.825360	19.892055	15.718857	1.085468	-1.041759	2.709891	0.000000	-0.157814	0.000000	-0.000004	-0.000000	0.000000	0.000000
59.374420	18.395704	17.196505	1.623695	-1.665359	2.601615	0.000000	-0.236013	0.000000	-0.000004	0.000000	0.000000	0.000000
59.923480	16.368143	19.419669	2.047232	-2.407578	2.451489	0.000000	-0.310026	0.000000	-0.000004	0.000000	0.000000	0.000000
60.369440	14.781128	21.395684	1.524018	-2.004645	2.328520	0.000000	-0.241745	0.000000	-0.000004	0.000000	0.000000	0.000000
60.810400	13.639554	22.952251	1.074641	-1.511873	2.236368	0.000000	-0.176615	0.000000	-0.000004	-0.000000	0.000000	0.000000
61.251360	12.871229	24.042124	0.674362	-0.950312	2.172465	0.000000	-0.113496	0.000000	-0.000004	-0.000000	0.000000	0.000000
61.692320	12.441049	24.615713	0.304892	-0.345513	2.136083	0.000000	-0.051670	0.000000	-0.000004	-0.000000	0.000000	0.000000
62.134530	12.329412	24.646386	-0.020513	0.214510	2.126815	0.000000	0.004351	0.000000	-0.000004	-0.000000	0.000000	0.000000
62.431853	12.348782	24.522581	-0.044638	0.201891	2.128109	0.000000	0.004351	0.000000	-0.000005	-0.000000	0.000000	0.000000
62.765186	12.387556	24.392702	-0.071685	0.187744	2.129559	0.000000	0.004351	0.000000	-0.000005	-0.000000	0.000000	0.000000
63.098520	12.444362	24.272255	-0.098732	0.173597	2.131010	0.000000	0.004351	0.000000	-0.000005	-0.000000	0.000000	0.000000
63.433103	12.519513	24.160841	-0.125880	0.159397	2.132466	0.000000	0.004351	0.000000	-0.000005	-0.000000	0.000000	0.000000
63.730426	12.601540	24.069808	-0.119101	0.087749	2.133760	0.000000	-0.000881	0.000000	-0.000005	-0.000000	0.000000	0.000000
64.171386	12.867017	23.727329	-0.485225	0.685963	2.146911	0.000000	0.060585	0.000000	-0.000005	-0.000000	0.000000	0.000000
64.612346	13.463903	22.869072	-0.873517	1.252966	2.187293	0.000000	0.122742	0.000000	-0.000005	-0.000001	0.000000	0.000000
65.053306	14.419469	21.534089	-1.301718	1.762961	2.255365	0.000000	0.186297	0.000000	-0.000006	-0.000001	0.000000	0.000000
65.494266	15.777373	19.783120	-1.789391	2.192742	2.351903	0.000000	0.251973	0.000000	-0.000006	-0.000001	0.000000	0.000000
65.940226	17.622818	17.671048	-2.363508	2.523511	2.479579	0.000000	0.320921	0.000000	-0.000007	-0.000001	0.000000	0.000000
66.489286	19.988386	15.308245	-1.919386	1.805253	2.635420	0.000000	0.245906	0.000000	-0.000007	-0.000001	0.000000	0.000000
67.038346	21.788469	13.659360	-1.339688	1.215579	2.748812	0.000000	0.166528	0.000000	-0.000007	-0.000001	0.000000	0.000000
67.587406	22.895917	12.606947	-0.665361	0.712489	2.817746	0.000000	0.084197	0.000000	-0.000008	-0.000000	0.000000	0.000000
68.136466	23.232505	12.076045	0.055964	0.260147	2.840997	0.000000	0.000373	0.000000	-0.000008	-0.000000	0.000000	0.000000
68.435038	23.239174	11.909867	-0.017594	0.264874	2.843325	0.000000	0.007796	0.000000	-0.000008	-0.000000	0.000000	0.000000
68.768372	23.255686	11.743268	-0.031943	0.234922	2.845923	0.000000	0.007796	0.000000	-0.000008	-0.000000	0.000000	0.000000
69.101705	23.281764	11.596638	-0.046291	0.204970	2.848522	0.000000	0.007796	0.000000	-0.000008	-0.000000	0.000000	0.000000
69.436288	23.317559	11.469537	-0.060692	0.174907	2.851131	0.000000	0.007796	0.000000	-0.000008	-0.000000	0.000000	0.000000
69.733611	23.357454	11.373473	-0.134523	0.177909	2.853449	0.000000	0.015252	0.000000	-0.000008	-0.000000	0.000000	0.000000
70.282671	23.104032	11.405828	0.593348	-0.237186	2.838640	0.000000	-0.069113	0.000000	-0.000008	0.000000	0.000000	0.000000
