#ParticleID	Turn	x[m]	xp	y[m]	yp	z[m]	dE[GeV]# s	beta_x	beta_y	alpha_x	alpha_y	D_x	D_y	D_px	D_py	orbit_x	orbit_px	orbit_y	orbit_py
0.300000	11.810770	25.031438	-0.010679	-0.027151	2.618083	0.000000	0.000024	0.000000	-0.000001	0.000001	0.000000	0.000000
0.601250	11.824889	25.051425	-0.036188	-0.039195	2.618090	0.000000	0.000024	0.000000	-0.000001	0.000001	0.000000	0.000000
0.898573	11.853893	25.078266	-0.032296	-0.112581	2.618097	0.000000	-0.006396	0.000000	-0.000001	0.000001	0.000000	0.000000
1.339533	12.034468	24.899361	-0.378760	0.516755	2.631569	0.000000	0.067561	0.000000	0.000000	0.000001	0.000000	0.000000
1.780493	12.527043	24.173718	-0.742529	1.122580	2.677792	0.000000	0.142287	0.000000	0.000001	0.000001	0.000000	0.000000
2.221453	13.354124	22.934355	-1.140223	1.677327	2.757291	0.000000	0.218634	0.000000	0.000001	0.000001	0.000000	0.000000
2.662413	14.553497	21.237661	-1.590009	2.155758	2.870974	0.000000	0.297471	0.000000	0.000002	0.000002	0.000000	0.000000
3.108373	16.200695	19.135954	-2.116727	2.537236	3.021994	0.000000	0.380186	0.000000	0.000003	0.000002	0.000000	0.000000
3.657433	18.312962	16.775406	-1.707559	1.787394	3.205467	0.000000	0.287148	0.000000	0.000003	0.000001	0.000000	0.000000
4.206493	19.906618	15.163951	-1.177777	1.164863	3.336380	0.000000	0.189016	0.000000	0.000004	0.000001	0.000000	0.000000
4.755553	20.869097	14.186810	-0.564803	0.625304	3.412412	0.000000	0.087532	0.000000	0.000005	0.000001	0.000000	0.000000
5.304613	21.132414	13.774382	0.088066	0.130283	3.432215	0.000000	-0.015504	0.000000	0.000006	0.000001	0.000000	0.000000
5.603185	21.117019	13.681744	0.018709	0.143996	3.430263	0.000000	-0.006537	0.000000	0.000006	0.000001	0.000000	0.000000
5.936519	21.109809	13.594037	0.002919	0.119127	3.428083	0.000000	-0.006537	0.000000	0.000006	0.000001	0.000000	0.000000
6.269852	21.113127	13.522908	-0.012872	0.094259	3.425904	0.000000	-0.006537	0.000000	0.000007	0.000001	0.000000	0.000000
6.604435	21.127043	13.468185	-0.028721	0.069297	3.423716	0.000000	-0.006537	0.000000	0.000007	0.000001	0.000000	0.000000
6.901758	21.148310	13.433573	-0.098059	0.082213	3.421772	0.000000	0.002403	0.000000	0.000007	0.000001	0.000000	0.000000
7.450818	20.895573	13.604162	0.555642	-0.394740	3.394889	0.000000	-0.100181	0.000000	0.000008	0.000001	0.000000	0.000000
7.999878	19.942397	14.310776	1.170097	-0.899809	3.312088	0.000000	-0.200987	0.000000	0.000008	0.000001	0.000000	0.000000
8.548938	18.356108	15.603746	1.701901	-1.468970	3.174835	0.000000	-0.298229	0.000000	0.000008	0.000000	0.000000	0.000000
9.097998	16.248754	17.575167	2.113491	-2.142762	2.985568	0.000000	-0.390181	0.000000	0.000008	0.000000	0.000000	0.000000
9.543958	14.604654	19.331790	1.586269	-1.779559	2.829870	0.000000	-0.308472	0.000000	0.000009	0.000000	0.000000	0.000000
9.984918	13.408864	20.711150	1.135805	-1.336622	2.711093	0.000000	-0.230760	0.000000	0.000009	0.000000	0.000000	0.000000
10.425878	12.586051	21.671463	0.737233	-0.832869	2.625972	0.000000	-0.155677	0.000000	0.000009	0.000001	0.000000	0.000000
10.866838	12.098621	22.169036	0.372344	-0.291222	2.573538	0.000000	-0.082366	0.000000	0.000009	0.000001	0.000000	0.000000
11.309048	11.924171	22.180706	0.053599	0.209227	2.553173	0.000000	-0.016254	0.000000	0.000010	0.000001	0.000000	0.000000
11.606371	11.899733	22.060450	0.028593	0.195235	2.548340	0.000000	-0.016254	0.000000	0.000010	0.000001	0.000000	0.000000
12.086371	11.891661	21.883866	-0.011777	0.172648	2.540537	0.000000	-0.016254	0.000000	0.000011	0.000001	0.000000	0.000000
12.566371	11.922345	21.728967	-0.052147	0.150060	2.532735	0.000000	-0.016254	0.000000	0.000011	0.000001	0.000000	0.000000
13.046371	11.991783	21.595751	-0.092517	0.127472	2.524932	0.000000	-0.016254	0.000000	0.000012	0.000001	0.000000	0.000000
13.526371	12.099977	21.484220	-0.132887	0.104884	2.517129	0.000000	-0.016254	0.000000	0.000012	0.000001	0.000000	0.000000
14.007621	12.247359	21.394167	-0.173362	0.082238	2.509306	0.000000	-0.016254	0.000000	0.000013	0.000001	0.000000	0.000000
14.304943	12.357883	21.349425	-0.168067	0.015898	2.504473	0.000000	-0.022395	0.000000	0.000013	0.000001	0.000000	0.000000
14.745903	12.664620	21.101740	-0.530185	0.543658	2.510230	0.000000	0.048533	0.000000	0.000014	0.000001	0.000000	0.000000
15.186863	13.300151	20.397785	-0.916525	1.046682	2.547355	0.000000	0.120014	0.000000	0.000014	0.000002	0.000000	0.000000
15.627823	14.293510	19.269588	-1.344739	1.502083	2.616272	0.000000	0.192862	0.000000	0.000015	0.000002	0.000000	0.000000
16.068783	15.690082	17.768481	-1.834391	1.889141	2.717764	0.000000	0.267906	0.000000	0.000016	0.000003	0.000000	0.000000
16.514743	17.577329	15.941262	-2.412608	2.190987	2.854684	0.000000	0.346465	0.000000	0.000018	0.000003	0.000000	0.000000
17.063803	20.001272	13.901026	-1.975969	1.546816	3.021179	0.000000	0.259122	0.000000	0.000019	0.000002	0.000000	0.000000
17.612863	21.865787	12.503878	-1.399757	1.012822	3.138385	0.000000	0.167184	0.000000	0.000020	0.000002	0.000000	0.000000
18.161923	23.039173	11.650301	-0.724674	0.550968	3.204221	0.000000	0.072281	0.000000	0.000021	0.000001	0.000000	0.000000
18.710983	23.438550	11.279499	0.001597	0.128359	3.217521	0.000000	-0.023905	0.000000	0.000022	0.000000	0.000000	0.000000
19.009556	23.477976	11.193355	-0.072416	0.130695	3.212893	0.000000	-0.015500	0.000000	0.000022	0.000001	0.000000	0.000000
19.342889	23.531011	11.116321	-0.086688	0.100407	3.207726	0.000000	-0.015500	0.000000	0.000022	0.000001	0.000000	0.000000
19.676223	23.593560	11.059479	-0.100960	0.070118	3.202559	0.000000	-0.015500	0.000000	0.000022	0.000001	0.000000	0.000000
20.010806	23.666206	11.022594	-0.232541	0.094329	3.197393	0.000000	0.000342	0.000000	0.000022	0.000001	0.000000	0.000000
20.308129	23.808423	10.974592	-0.307979	0.095785	3.197494	0.000000	0.008695	0.000000	0.000022	0.000001	0.000000	0.000000
20.857189	23.735981	11.091474	0.439136	-0.309916	3.176045	0.000000	-0.086710	0.000000	0.000023	-0.000000	0.000000	0.000000
21.406249	22.855363	11.663298	1.155233	-0.737692	3.102559	0.000000	-0.180577	0.000000	0.000022	-0.000001	0.000000	0.000000
21.955309	21.228773	12.730796	1.789730	-1.218012	2.978339	0.000000	-0.271241	0.000000	0.000022	-0.000001	0.000000	0.000000
22.504369	18.971103	14.370003	2.297809	-1.785088	2.805589	0.000000	-0.357093	0.000000	0.000021	-0.000002	0.000000	0.000000
22.950329	17.191810	15.841751	1.706076	-1.501168	2.663636	0.000000	-0.279874	0.000000	0.000020	-0.000002	0.000000	0.000000
23.391289	15.916513	17.015188	1.196986	-1.149800	2.556547	0.000000	-0.206297	0.000000	0.000019	-0.000001	0.000000	0.000000
23.832249	15.064472	17.854404	0.742583	-0.746116	2.481355	0.000000	-0.135070	0.000000	0.000019	-0.000001	0.000000	0.000000
24.273209	14.596760	18.321218	0.322107	-0.308485	2.437202	0.000000	-0.065381	0.000000	0.000019	-0.000000	0.000000	0.000000
24.715418	14.492130	18.394143	-0.048207	0.098013	2.423582	0.000000	-0.002379	0.000000	0.000019	0.000000	0.000000	0.000000
25.012741	14.526910	18.340712	-0.068771	0.081694	2.422875	0.000000	-0.002379	0.000000	0.000019	0.000000	0.000000	0.000000
25.346075	14.580442	18.292348	-0.091826	0.063398	2.422082	0.000000	-0.002379	0.000000	0.000019	0.000000	0.000000	0.000000
25.679408	14.649344	18.256182	-0.114880	0.045102	2.421289	0.000000	-0.002379	0.000000	0.000019	0.000000	0.000000	0.000000
26.013991	14.733662	18.232515	-0.018492	-0.121173	2.420468	0.000000	-0.022015	0.000000	0.000019	0.000000	0.000000	0.000000
26.311314	14.750660	18.309490	-0.002512	-0.182612	2.413922	0.000000	-0.027934	0.000000	0.000019	0.000000	0.000000	0.000000
26.752274	14.934604	18.271981	-0.416214	0.267350	2.416717	0.000000	0.040622	0.000000	0.000019	0.000001	0.000000	0.000000
27.193234	15.490374	17.841509	-0.848931	0.705149	2.449815	0.000000	0.109640	0.000000	0.000020	0.000001	0.000000	0.000000
27.634194	16.443362	17.037661	-1.320434	1.110864	2.513593	0.000000	0.179907	0.000000	0.000020	0.000002	0.000000	0.000000
28.075154	17.837108	15.897011	-1.852263	1.466035	2.608778	0.000000	0.252224	0.000000	0.000021	0.000002	0.000000	0.000000
28.521114	19.759500	14.454274	-2.473687	1.755415	2.738057	0.000000	0.327856	0.000000	0.000022	0.000003	0.000000	0.000000
29.070174	22.202872	12.846819	-1.950067	1.189514	2.895400	0.000000	0.244441	0.000000	0.000023	0.000002	0.000000	0.000000
29.619234	23.991743	11.810897	-1.288705	0.708340	3.005685	0.000000	0.156690	0.000000	0.000024	0.000001	0.000000	0.000000
30.168294	24.999755	11.272723	-0.536314	0.277620	3.066953	0.000000	0.066160	0.000000	0.000025	0.000000	0.000000	0.000000
30.717354	25.155708	11.193962	0.253959	-0.133326	3.078120	0.000000	-0.025543	0.000000	0.000025	-0.000000	0.000000	0.000000
31.015927	25.046968	11.264165	0.175956	-0.131046	3.072895	0.000000	-0.017503	0.000000	0.000024	-0.000000	0.000000	0.000000
31.349260	24.934238	11.361563	0.162235	-0.161147	3.067061	0.000000	-0.017503	0.000000	0.000024	-0.000000	0.000000	0.000000
31.682593	24.830654	11.479028	0.148515	-0.191247	3.061227	0.000000	-0.017503	0.000000	0.000024	-0.000000	0.000000	0.000000
32.017177	24.735881	11.617113	0.134743	-0.221461	3.055371	0.000000	-0.017503	0.000000	0.000024	-0.000000	0.000000	0.000000
32.314499	24.659395	11.756787	0.058088	-0.217598	3.050167	0.000000	-0.009535	0.000000	0.000024	-0.000000	0.000000	0.000000
32.863559	24.173100	12.234930	0.822355	-0.658382	3.020045	0.000000	-0.100025	0.000000	0.000024	-0.000001	0.000000	0.000000
33.412619	22.874633	13.219864	1.528535	-1.146062	2.940654	0.000000	-0.188742	0.000000	0.000023	-0.000002	0.000000	0.000000
33.961679	20.855712	14.781744	2.126747	-1.715373	2.813401	0.000000	-0.274111	0.000000	0.000022	-0.000003	0.000000	0.000000
34.510739	18.258942	17.031819	2.574736	-2.406866	2.640543	0.000000	-0.354617	0.000000	0.000020	-0.000003	0.000000	0.000000
34.956699	16.239824	19.044443	1.969061	-2.087306	2.498743	0.000000	-0.281677	0.000000	0.000019	-0.000003	0.000000	0.000000
35.397659	14.734178	20.709152	1.458363	-1.673519	2.389920	0.000000	-0.212374	0.000000	0.000018	-0.000002	0.000000	0.000000
35.838619	13.647956	21.973835	1.014293	-1.183589	2.311094	0.000000	-0.145489	0.000000	0.000017	-0.000002	0.000000	0.000000
36.279579	12.931531	22.780950	0.616564	-0.639806	2.261368	0.000000	-0.080261	0.000000	0.000016	-0.000001	0.000000	0.000000
36.721789	12.551476	23.094084	0.277673	-0.123591	2.240150	0.000000	-0.021440	0.000000	0.000015	-0.000001	0.000000	0.000000
37.019112	12.393945	23.171464	0.252159	-0.136663	2.233776	0.000000	-0.021440	0.000000	0.000015	-0.000001	0.000000	0.000000
37.352445	12.235374	23.267457	0.223554	-0.151317	2.226630	0.000000	-0.021440	0.000000	0.000015	-0.000001	0.000000	0.000000
37.685779	12.095873	23.373219	0.194949	-0.165971	2.219483	0.000000	-0.021440	0.000000	0.000014	-0.000001	0.000000	0.000000
38.020362	11.975027	23.489203	0.166237	-0.180680	2.212310	0.000000	-0.021440	0.000000	0.000014	-0.000001	0.000000	0.000000
38.317684	11.883761	23.600530	0.169861	-0.251619	2.205936	0.000000	-0.026849	0.000000	0.000014	-0.000001	0.000000	0.000000
38.758644	11.885451	23.561028	-0.173708	0.340861	2.208026	0.000000	0.036336	0.000000	0.000013	-0.000001	0.000000	0.000000
39.199604	12.192483	23.003874	-0.525213	0.917832	2.238043	0.000000	0.099935	0.000000	0.000013	-0.000000	0.000000	0.000000
39.640564	12.818883	21.954420	-0.900714	1.453042	2.296328	0.000000	0.164671	0.000000	0.000013	-0.000000	0.000000	0.000000
40.081524	13.793271	20.460414	-1.317365	1.922140	2.383545	0.000000	0.231284	0.000000	0.000013	0.000000	0.000000	0.000000
40.527484	15.177740	18.567259	-1.798031	2.305067	2.502159	0.000000	0.300936	0.000000	0.000013	0.000001	0.000000	0.000000
41.076544	16.944436	16.439800	-1.400594	1.592534	2.646859	0.000000	0.225369	0.000000	0.000014	0.000000	0.000000	0.000000
41.625604	18.217457	15.028281	-0.904227	0.993433	2.748907	0.000000	0.145805	0.000000	0.000014	-0.000000	0.000000	0.000000
42.174664	18.906883	14.232162	-0.343989	0.465092	2.806495	0.000000	0.063654	0.000000	0.000013	-0.000001	0.000000	0.000000
42.723724	18.964017	13.994738	0.240547	-0.030121	2.818600	0.000000	-0.019625	0.000000	0.000013	-0.000001	0.000000	0.000000
43.022297	18.854833	13.997262	0.174684	-0.014894	2.814940	0.000000	-0.012262	0.000000	0.000013	-0.000001	0.000000	0.000000
43.502297	18.699728	14.028024	0.148450	-0.049194	2.809055	0.000000	-0.012262	0.000000	0.000012	-0.000001	0.000000	0.000000
43.982297	18.569809	14.091715	0.122215	-0.083494	2.803170	0.000000	-0.012262	0.000000	0.000012	-0.000001	0.000000	0.000000
44.462297	18.465075	14.188333	0.095981	-0.117794	2.797284	0.000000	-0.012262	0.000000	0.000011	-0.000001	0.000000	0.000000
44.942297	18.385526	14.317880	0.069746	-0.152094	2.791399	0.000000	-0.012262	0.000000	0.000011	-0.000001	0.000000	0.000000
45.423547	18.331281	14.480642	-0.047380	-0.114738	2.785516	0.000000	0.001539	0.000000	0.000010	-0.000001	0.000000	0.000000
45.720870	18.364289	14.555055	-0.111614	-0.097514	2.785974	0.000000	0.008818	0.000000	0.000010	-0.000001	0.000000	0.000000
46.269930	18.177638	14.943618	0.449546	-0.614351	2.768243	0.000000	-0.073313	0.000000	0.000009	-0.000001	0.000000	0.000000
46.818990	17.388635	15.920285	0.978953	-1.174946	2.705708	0.000000	-0.154144	0.000000	0.000008	-0.000002	0.000000	0.000000
47.368050	16.053010	17.554621	1.439212	-1.819231	2.599478	0.000000	-0.232241	0.000000	0.000007	-0.000002	0.000000	0.000000
47.917110	14.265105	19.963037	1.797812	-2.593095	2.451438	0.000000	-0.306218	0.000000	0.000006	-0.000002	0.000000	0.000000
48.363070	12.873806	22.104290	1.333027	-2.188167	2.330170	0.000000	-0.237917	0.000000	0.000006	-0.000002	0.000000	0.000000
48.804030	11.878393	23.818706	0.932913	-1.684954	2.239719	0.000000	-0.172722	0.000000	0.000005	-0.000002	0.000000	0.000000
49.244990	11.215791	25.053698	0.575422	-1.105077	2.177556	0.000000	-0.109495	0.000000	0.000004	-0.000002	0.000000	0.000000
49.685950	10.855726	25.753075	0.244221	-0.474920	2.142972	0.000000	-0.047514	0.000000	0.000003	-0.000002	0.000000	0.000000
50.128160	10.781874	25.884732	-0.049500	0.113322	2.135585	0.000000	0.008688	0.000000	0.000003	-0.000001	0.000000	0.000000
50.425482	10.819528	25.820805	-0.077144	0.101688	2.138169	0.000000	0.008688	0.000000	0.000002	-0.000001	0.000000	0.000000
50.758816	10.881287	25.757360	-0.108135	0.088645	2.141066	0.000000	0.008688	0.000000	0.000002	-0.000001	0.000000	0.000000
51.092149	10.963708	25.702612	-0.139127	0.075602	2.143962	0.000000	0.008688	0.000000	0.000001	-0.000001	0.000000	0.000000
51.426732	11.066991	25.656922	-0.080453	-0.145632	2.146848	0.000000	-0.008728	0.000000	0.000001	-0.000001	0.000000	0.000000
51.724055	11.122871	25.747040	-0.080216	-0.220606	2.144253	0.000000	-0.013987	0.000000	0.000000	-0.000001	0.000000	0.000000
52.165015	11.338857	25.655140	-0.411449	0.428221	2.151675	0.000000	0.047677	0.000000	-0.000000	-0.000001	0.000000	0.000000
52.605975	11.854117	24.997466	-0.761481	1.057564	2.186381	0.000000	0.109883	0.000000	-0.000001	-0.000002	0.000000	0.000000
53.046935	12.692194	23.803940	-1.146303	1.638789	2.248768	0.000000	0.173341	0.000000	-0.000002	-0.000002	0.000000	0.000000
53.487895	13.891376	22.128868	-1.583496	2.145449	2.339545	0.000000	0.238773	0.000000	-0.000002	-0.000002	0.000000	0.000000
53.933855	15.527010	20.023421	-2.097261	2.555832	2.461251	0.000000	0.307324	0.000000	-0.000003	-0.000002	0.000000	0.000000
54.482915	17.632864	17.654224	-1.715416	1.784643	2.609812	0.000000	0.233020	0.000000	-0.000004	-0.000002	0.000000	0.000000
55.031975	19.249985	16.057533	-1.212403	1.140569	2.716378	0.000000	0.154583	0.000000	-0.000005	-0.000001	0.000000	0.000000
55.581035	20.264147	15.119616	-0.623752	0.577736	2.779060	0.000000	0.073404	0.000000	-0.000006	-0.000001	0.000000	0.000000
56.130095	20.603716	14.773670	0.008958	0.056054	2.796746	0.000000	-0.009077	0.000000	-0.000006	-0.000001	0.000000	0.000000
56.428668	20.634850	14.723234	-0.059399	0.074266	2.796218	0.000000	-0.001769	0.000000	-0.000007	-0.000001	0.000000	0.000000
56.762001	20.679854	14.681312	-0.075610	0.051501	2.795629	0.000000	-0.001769	0.000000	-0.000007	-0.000001	0.000000	0.000000
57.095334	20.735664	14.654566	-0.091821	0.028736	2.795039	0.000000	-0.001769	0.000000	-0.000007	-0.000001	0.000000	0.000000
57.429918	20.802552	14.642982	-0.108093	0.005886	2.794448	0.000000	-0.001769	0.000000	-0.000008	-0.000001	0.000000	0.000000
57.727240	20.871128	14.645519	-0.177088	0.023849	2.793922	0.000000	0.005531	0.000000	-0.000008	-0.000001	0.000000	0.000000
58.276300	20.709546	14.900529	0.469633	-0.491039	2.774321	0.000000	-0.076827	0.000000	-0.000009	-0.000001	0.000000	0.000000
58.825360	19.851880	15.736722	1.083182	-1.040904	2.709808	0.000000	-0.157823	0.000000	-0.000009	-0.000001	0.000000	0.000000
59.374420	18.358711	17.213657	1.620221	-1.664909	2.601527	0.000000	-0.236019	0.000000	-0.000009	-0.000000	0.000000	0.000000
59.923480	16.335509	19.436534	2.042815	-2.407502	2.451399	0.000000	-0.310029	0.000000	-0.000009	0.000000	0.000000	0.000000
60.369440	14.751992	21.412223	1.520564	-2.003991	2.328428	0.000000	-0.241751	0.000000	-0.000009	-0.000000	0.000000	0.000000
60.810400	13.613102	22.967971	1.071986	-1.510677	2.236273	0.000000	-0.176623	0.000000	-0.000009	-0.000000	0.000000	0.000000
61.251360	12.846812	24.056568	0.672383	-0.948628	2.172366	0.000000	-0.113507	0.000000	-0.000010	-0.000001	0.000000	0.000000
61.692320	12.418112	24.628484	0.303500	-0.343417	2.135979	0.000000	-0.051684	0.000000	-0.000010	-0.000001	0.000000	0.000000
62.134530	12.307471	24.657155	-0.021434	0.216893	2.126705	0.000000	0.004335	0.000000	-0.000010	-0.000001	0.000000	0.000000
62.431853	12.327403	24.531935	-0.045603	0.204268	2.127994	0.000000	0.004335	0.000000	-0.000011	-0.000001	0.000000	0.000000
62.765186	12.366838	24.400474	-0.072700	0.190113	2.129440	0.000000	0.004335	0.000000	-0.000011	-0.000001	0.000000	0.000000
63.098520	12.424336	24.278451	-0.099796	0.175958	2.130885	0.000000	0.004335	0.000000	-0.000012	-0.000001	0.000000	0.000000
63.433103	12.500216	24.165459	-0.126994	0.161750	2.132336	0.000000	0.004335	0.000000	-0.000012	-0.000001	0.000000	0.000000
63.730426	12.582918	24.073029	-0.120302	0.090083	2.133625	0.000000	-0.000898	0.000000	-0.000012	-0.000001	0.000000	0.000000
64.171386	12.849277	23.728472	-0.486032	0.688322	2.146769	0.000000	0.060566	0.000000	-0.000013	-0.000001	0.000000	0.000000
64.612346	13.446716	22.868164	-0.873968	1.255242	2.187142	0.000000	0.122719	0.000000	-0.000014	-0.000002	0.000000	0.000000
65.053306	14.402530	21.531249	-1.301832	1.765050	2.255203	0.000000	0.186269	0.000000	-0.000014	-0.000002	0.000000	0.000000
65.494266	15.760388	19.778555	-1.789174	2.194550	2.351729	0.000000	0.251941	0.000000	-0.000015	-0.000003	0.000000	0.000000
65.940226	17.605487	17.665029	-2.362949	2.524951	2.479390	0.000000	0.320885	0.000000	-0.000017	-0.000003	0.000000	0.000000
66.489286	19.970819	15.300686	-1.919518	1.806634	2.635214	0.000000	0.245876	0.000000	-0.000018	-0.000002	0.000000	0.000000
67.038346	21.771424	13.650273	-1.340503	1.216998	2.748593	0.000000	0.166505	0.000000	-0.000019	-0.000002	0.000000	0.000000
67.587406	22.880117	12.596235	-0.666802	0.714047	2.817516	0.000000	0.084181	0.000000	-0.000020	-0.000001	0.000000	0.000000
68.136466	23.218585	12.063496	0.053999	0.261956	2.840761	0.000000	0.000364	0.000000	-0.000021	-0.000000	0.000000	0.000000
68.435038	23.226412	11.896271	-0.019537	0.266600	2.843086	0.000000	0.007788	0.000000	-0.000021	-0.000001	0.000000	0.000000
68.768372	23.244222	11.728541	-0.033894	0.236588	2.845682	0.000000	0.007788	0.000000	-0.000021	-0.000001	0.000000	0.000000
69.101705	23.271604	11.580820	-0.048251	0.206577	2.848278	0.000000	0.007788	0.000000	-0.000021	-0.000001	0.000000	0.000000
69.436288	23.308713	11.452665	-0.062662	0.176452	2.850884	0.000000	0.007788	0.000000	-0.000021	-0.000001	0.000000	0.000000
69.733611	23.349782	11.355697	-0.136487	0.179359	2.853200	0.000000	0.015244	0.000000	-0.000021	-0.000001	0.000000	0.000000
70.282671	23.098637	11.386183	0.591188	-0.235209	2.838390	0.000000	-0.069113	0.000000	-0.000022	0.000000	0.000000	0.000000
