#ParticleID	Turn	x[m]	xp	y[m]	yp	z[m]	dE[GeV]# s	beta_x	beta_y	alpha_x	alpha_y	D_x	D_y	D_px	D_py	orbit_x	orbit_px	orbit_y	orbit_py
0.300000	11.809685	25.035716	-0.010573	-0.027100	2.618097	0.000000	0.000018	0.000000	-0.000000	0.000001	0.000000	0.000000
0.601250	11.823741	25.055671	-0.036085	-0.039142	2.618102	0.000000	0.000018	0.000000	-0.000000	0.000001	0.000000	0.000000
0.898573	11.852685	25.082480	-0.032197	-0.112535	2.618107	0.000000	-0.006403	0.000000	0.000000	0.000001	0.000000	0.000000
1.339533	12.033160	24.903485	-0.378632	0.516911	2.631576	0.000000	0.067555	0.000000	0.000001	0.000002	0.000000	0.000000
1.780493	12.525607	24.177659	-0.742365	1.122839	2.677796	0.000000	0.142281	0.000000	0.000002	0.000002	0.000000	0.000000
2.221453	13.352524	22.938026	-1.140015	1.677678	2.757293	0.000000	0.218628	0.000000	0.000002	0.000002	0.000000	0.000000
2.662413	14.551692	21.240988	-1.589749	2.156184	2.870973	0.000000	0.297465	0.000000	0.000003	0.000002	0.000000	0.000000
3.108373	16.198629	19.138873	-2.116401	2.537719	3.021991	0.000000	0.380180	0.000000	0.000004	0.000002	0.000000	0.000000
3.657433	18.310566	16.777862	-1.707288	1.787760	3.205460	0.000000	0.287142	0.000000	0.000005	0.000002	0.000000	0.000000
4.206493	19.903964	15.166057	-1.177580	1.165140	3.336370	0.000000	0.189011	0.000000	0.000006	0.000001	0.000000	0.000000
4.755553	20.866274	14.188652	-0.564694	0.625510	3.412399	0.000000	0.087527	0.000000	0.000006	0.000001	0.000000	0.000000
5.304613	21.129522	13.776030	0.088080	0.130433	3.432198	0.000000	-0.015509	0.000000	0.000007	0.000001	0.000000	0.000000
5.603185	21.114114	13.683300	0.018730	0.144152	3.430245	0.000000	-0.006542	0.000000	0.000007	0.000001	0.000000	0.000000
5.936519	21.106892	13.595488	0.002937	0.119285	3.428064	0.000000	-0.006542	0.000000	0.000008	0.000001	0.000000	0.000000
6.269852	21.110198	13.524254	-0.012856	0.094418	3.425883	0.000000	-0.006542	0.000000	0.000008	0.000001	0.000000	0.000000
6.604435	21.124105	13.469424	-0.028708	0.069458	3.423693	0.000000	-0.006542	0.000000	0.000008	0.000001	0.000000	0.000000
6.901758	21.145364	13.434715	-0.098039	0.082378	3.421748	0.000000	0.002398	0.000000	0.000009	0.000001	0.000000	0.000000
7.450818	20.892660	13.605141	0.555564	-0.394604	3.394862	0.000000	-0.100185	0.000000	0.000009	0.000001	0.000000	0.000000
7.999878	19.939621	14.311617	1.169925	-0.899693	3.312058	0.000000	-0.200991	0.000000	0.000010	0.000000	0.000000	0.000000
8.548938	18.353566	15.604466	1.701649	-1.468864	3.174805	0.000000	-0.298231	0.000000	0.000010	0.000000	0.000000	0.000000
9.097998	16.246524	17.575774	2.113177	-2.142660	2.985536	0.000000	-0.390182	0.000000	0.000010	-0.000000	0.000000	0.000000
9.543958	14.602675	19.332293	1.586021	-1.779428	2.829837	0.000000	-0.308474	0.000000	0.000010	0.000000	0.000000	0.000000
9.984918	13.407079	20.711527	1.135613	-1.336468	2.711059	0.000000	-0.230763	0.000000	0.000010	0.000000	0.000000	0.000000
10.425878	12.584414	21.671696	0.737087	-0.832699	2.625937	0.000000	-0.155681	0.000000	0.000010	0.000001	0.000000	0.000000
10.866838	12.097095	22.169115	0.372237	-0.291044	2.573501	0.000000	-0.082371	0.000000	0.000010	0.000001	0.000000	0.000000
11.309048	11.922724	22.180626	0.053524	0.209406	2.553134	0.000000	-0.016260	0.000000	0.000011	0.000001	0.000000	0.000000
11.606371	11.898332	22.060264	0.028515	0.195413	2.548299	0.000000	-0.016260	0.000000	0.000011	0.000001	0.000000	0.000000
12.086371	11.890337	21.883510	-0.011860	0.172824	2.540493	0.000000	-0.016260	0.000000	0.000012	0.000001	0.000000	0.000000
12.566371	11.921102	21.728442	-0.052234	0.150235	2.532688	0.000000	-0.016260	0.000000	0.000012	0.000001	0.000000	0.000000
13.046371	11.990627	21.595060	-0.092609	0.127645	2.524882	0.000000	-0.016260	0.000000	0.000013	0.000001	0.000000	0.000000
13.526371	12.098911	21.483364	-0.132983	0.105056	2.517077	0.000000	-0.016260	0.000000	0.000013	0.000001	0.000000	0.000000
14.007621	12.246388	21.393147	-0.173463	0.082407	2.509251	0.000000	-0.016260	0.000000	0.000014	0.000001	0.000000	0.000000
14.304943	12.356973	21.348304	-0.168173	0.016070	2.504416	0.000000	-0.022401	0.000000	0.000014	0.000001	0.000000	0.000000
14.745903	12.663797	21.100483	-0.530274	0.543796	2.510170	0.000000	0.048526	0.000000	0.000015	0.000001	0.000000	0.000000
15.186863	13.299400	20.396423	-0.916601	1.046780	2.547292	0.000000	0.120005	0.000000	0.000015	0.000002	0.000000	0.000000
15.627823	14.292822	19.268159	-1.344806	1.502136	2.616204	0.000000	0.192852	0.000000	0.000016	0.000002	0.000000	0.000000
16.068783	15.689450	17.767026	-1.834451	1.889147	2.717692	0.000000	0.267894	0.000000	0.000017	0.000003	0.000000	0.000000
16.514743	17.576749	15.939823	-2.412664	2.190946	2.854606	0.000000	0.346450	0.000000	0.000019	0.000003	0.000000	0.000000
17.063803	20.000771	13.899614	-1.976057	1.546808	3.021094	0.000000	0.259111	0.000000	0.000020	0.000003	0.000000	0.000000
17.612863	21.865397	12.502456	-1.399871	1.012847	3.138294	0.000000	0.167176	0.000000	0.000022	0.000002	0.000000	0.000000
18.161923	23.038920	11.648834	-0.724805	0.551028	3.204127	0.000000	0.072275	0.000000	0.000022	0.000001	0.000000	0.000000
18.710983	23.438446	11.277945	0.001458	0.128458	3.217424	0.000000	-0.023908	0.000000	0.000023	0.000000	0.000000	0.000000
19.009556	23.477955	11.191746	-0.072555	0.130785	3.212795	0.000000	-0.015503	0.000000	0.000023	0.000000	0.000000	0.000000
19.342889	23.531083	11.114654	-0.086828	0.100492	3.207627	0.000000	-0.015503	0.000000	0.000023	0.000000	0.000000	0.000000
19.676223	23.593725	11.057757	-0.101100	0.070198	3.202460	0.000000	-0.015503	0.000000	0.000023	0.000000	0.000000	0.000000
20.010806	23.666464	11.020820	-0.232683	0.094395	3.197292	0.000000	0.000339	0.000000	0.000023	0.000001	0.000000	0.000000
20.308129	23.808766	10.972781	-0.308122	0.095841	3.197393	0.000000	0.008691	0.000000	0.000024	0.000001	0.000000	0.000000
20.857189	23.736473	11.089572	0.439008	-0.309808	3.175942	0.000000	-0.086710	0.000000	0.000024	-0.000000	0.000000	0.000000
21.406249	22.855984	11.661246	1.155128	-0.737524	3.102457	0.000000	-0.180574	0.000000	0.000023	-0.000001	0.000000	0.000000
21.955309	21.229492	12.728521	1.789656	-1.217772	2.978240	0.000000	-0.271234	0.000000	0.000023	-0.000002	0.000000	0.000000
22.504369	18.971884	14.367418	2.297771	-1.784759	2.805494	0.000000	-0.357084	0.000000	0.000022	-0.000002	0.000000	0.000000
22.950329	17.192629	15.838899	1.706028	-1.500901	2.663545	0.000000	-0.279867	0.000000	0.000021	-0.000002	0.000000	0.000000
23.391289	15.917381	17.012131	1.196924	-1.149606	2.556459	0.000000	-0.206293	0.000000	0.000020	-0.000001	0.000000	0.000000
23.832249	15.065402	17.851212	0.742505	-0.746004	2.481268	0.000000	-0.135068	0.000000	0.000020	-0.000001	0.000000	0.000000
24.273209	14.597767	18.317966	0.322009	-0.308460	2.437115	0.000000	-0.065381	0.000000	0.000019	-0.000000	0.000000	0.000000
24.715418	14.493234	18.390908	-0.048327	0.097957	2.423495	0.000000	-0.002381	0.000000	0.000019	0.000000	0.000000	0.000000
25.012741	14.528085	18.337512	-0.068890	0.081635	2.422787	0.000000	-0.002381	0.000000	0.000019	0.000000	0.000000	0.000000
25.346075	14.581696	18.289188	-0.091943	0.063336	2.421994	0.000000	-0.002381	0.000000	0.000019	0.000000	0.000000	0.000000
25.679408	14.650675	18.253063	-0.114996	0.045038	2.421200	0.000000	-0.002381	0.000000	0.000020	0.000000	0.000000	0.000000
26.013991	14.735069	18.229441	-0.018594	-0.121216	2.420379	0.000000	-0.022016	0.000000	0.000020	0.000000	0.000000	0.000000
26.311314	14.752128	18.306442	-0.002609	-0.182650	2.413833	0.000000	-0.027935	0.000000	0.000020	-0.000000	0.000000	0.000000
26.752274	14.936173	18.269003	-0.416349	0.267231	2.416627	0.000000	0.040619	0.000000	0.000020	0.000000	0.000000	0.000000
27.193234	15.492081	17.838671	-0.849109	0.704953	2.449723	0.000000	0.109635	0.000000	0.000020	0.000001	0.000000	0.000000
27.634194	16.445249	17.035026	-1.320664	1.110600	2.513498	0.000000	0.179899	0.000000	0.000021	0.000002	0.000000	0.000000
28.075154	17.839224	15.894634	-1.852555	1.465716	2.608679	0.000000	0.252213	0.000000	0.000021	0.000002	0.000000	0.000000
28.521114	19.761909	14.452201	-2.474055	1.755055	2.737953	0.000000	0.327843	0.000000	0.000022	0.000003	0.000000	0.000000
29.070174	22.205653	12.845096	-1.950372	1.189235	2.895290	0.000000	0.244431	0.000000	0.000024	0.000002	0.000000	0.000000
29.619234	23.994812	11.809446	-1.288924	0.708122	3.005569	0.000000	0.156684	0.000000	0.000025	0.000001	0.000000	0.000000
30.168294	25.003011	11.271485	-0.536432	0.277447	3.066836	0.000000	0.066158	0.000000	0.000025	0.000000	0.000000	0.000000
30.717354	25.159035	11.192895	0.253950	-0.133466	3.078003	0.000000	-0.025542	0.000000	0.000025	-0.000000	0.000000	0.000000
31.015927	25.050304	11.263185	0.175940	-0.131192	3.072778	0.000000	-0.017501	0.000000	0.000025	-0.000000	0.000000	0.000000
31.349260	24.937584	11.360681	0.162221	-0.161297	3.066944	0.000000	-0.017501	0.000000	0.000025	-0.000000	0.000000	0.000000
31.682593	24.834009	11.478247	0.148503	-0.191401	3.061110	0.000000	-0.017501	0.000000	0.000024	-0.000000	0.000000	0.000000
32.017177	24.739243	11.616436	0.134733	-0.221618	3.055255	0.000000	-0.017501	0.000000	0.000024	-0.000000	0.000000	0.000000
32.314499	24.662763	11.756204	0.058070	-0.217760	3.050052	0.000000	-0.009534	0.000000	0.000024	-0.000000	0.000000	0.000000
32.863559	24.176426	12.234521	0.822449	-0.658537	3.019932	0.000000	-0.100021	0.000000	0.000024	-0.000001	0.000000	0.000000
33.412619	22.877797	13.219626	1.528734	-1.146220	2.940544	0.000000	-0.188734	0.000000	0.000023	-0.000002	0.000000	0.000000
33.961679	20.858605	14.781687	2.127036	-1.715546	2.813296	0.000000	-0.274099	0.000000	0.000022	-0.000003	0.000000	0.000000
34.510739	18.261477	17.031967	2.575096	-2.407067	2.640446	0.000000	-0.354602	0.000000	0.000020	-0.000003	0.000000	0.000000
34.956699	16.242074	19.044777	1.969343	-2.087521	2.498652	0.000000	-0.281665	0.000000	0.000019	-0.000003	0.000000	0.000000
35.397659	14.736208	20.709679	1.458581	-1.673740	2.389834	0.000000	-0.212364	0.000000	0.000018	-0.000002	0.000000	0.000000
35.838619	13.649818	21.974555	1.014457	-1.183804	2.311012	0.000000	-0.145481	0.000000	0.000017	-0.000002	0.000000	0.000000
36.279579	12.933269	22.781855	0.616682	-0.640007	2.261290	0.000000	-0.080255	0.000000	0.000016	-0.000001	0.000000	0.000000
36.721789	12.553129	23.095157	0.277754	-0.123771	2.240074	0.000000	-0.021436	0.000000	0.000015	-0.000001	0.000000	0.000000
37.019112	12.395549	23.172643	0.252242	-0.136842	2.233701	0.000000	-0.021436	0.000000	0.000015	-0.000001	0.000000	0.000000
37.352445	12.236922	23.268756	0.223639	-0.151496	2.226556	0.000000	-0.021436	0.000000	0.000015	-0.000001	0.000000	0.000000
37.685779	12.097363	23.374638	0.195037	-0.166151	2.219411	0.000000	-0.021436	0.000000	0.000014	-0.000001	0.000000	0.000000
38.020362	11.976457	23.490742	0.166327	-0.180860	2.212239	0.000000	-0.021436	0.000000	0.000014	-0.000001	0.000000	0.000000
38.317684	11.885136	23.602176	0.169957	-0.251803	2.205866	0.000000	-0.026845	0.000000	0.000014	-0.000001	0.000000	0.000000
38.758644	11.886755	23.562816	-0.173642	0.340723	2.207958	0.000000	0.036339	0.000000	0.000013	-0.000001	0.000000	0.000000
39.199604	12.193740	23.005762	-0.525174	0.917746	2.237975	0.000000	0.099935	0.000000	0.000013	-0.000000	0.000000	0.000000
39.640564	12.820118	21.956358	-0.900700	1.453013	2.296260	0.000000	0.164671	0.000000	0.000013	-0.000000	0.000000	0.000000
40.081524	13.794505	20.462352	-1.317377	1.922169	2.383477	0.000000	0.231281	0.000000	0.000013	0.000000	0.000000	0.000000
40.527484	15.178996	18.569146	-1.798068	2.305152	2.502090	0.000000	0.300931	0.000000	0.000013	0.000001	0.000000	0.000000
41.076544	16.945705	16.441622	-1.400582	1.592568	2.646788	0.000000	0.225367	0.000000	0.000013	0.000000	0.000000	0.000000
41.625604	18.218686	15.030092	-0.904166	0.993419	2.748836	0.000000	0.145805	0.000000	0.000013	-0.000000	0.000000	0.000000
42.174664	18.908021	14.234016	-0.343884	0.465028	2.806424	0.000000	0.063657	0.000000	0.000013	-0.000001	0.000000	0.000000
42.723724	18.965020	13.996691	0.240688	-0.030239	2.818532	0.000000	-0.019621	0.000000	0.000012	-0.000001	0.000000	0.000000
43.022297	18.855753	13.999282	0.174822	-0.015004	2.814872	0.000000	-0.012257	0.000000	0.000012	-0.000001	0.000000	0.000000
43.502297	18.700516	14.030147	0.148588	-0.049300	2.808990	0.000000	-0.012257	0.000000	0.000011	-0.000001	0.000000	0.000000
43.982297	18.570464	14.093937	0.122354	-0.083595	2.803107	0.000000	-0.012257	0.000000	0.000011	-0.000001	0.000000	0.000000
44.462297	18.465597	14.190649	0.096119	-0.117890	2.797224	0.000000	-0.012257	0.000000	0.000010	-0.000001	0.000000	0.000000
44.942297	18.385915	14.320285	0.069885	-0.152185	2.791341	0.000000	-0.012257	0.000000	0.000010	-0.000001	0.000000	0.000000
45.423547	18.331537	14.483132	-0.047243	-0.114811	2.785460	0.000000	0.001544	0.000000	0.000009	-0.000001	0.000000	0.000000
45.720870	18.364462	14.557588	-0.111478	-0.097578	2.785919	0.000000	0.008822	0.000000	0.000009	-0.000001	0.000000	0.000000
46.269930	18.177660	14.946263	0.449685	-0.614493	2.768191	0.000000	-0.073307	0.000000	0.000008	-0.000001	0.000000	0.000000
46.818990	17.388508	15.923133	0.979084	-1.175177	2.705660	0.000000	-0.154136	0.000000	0.000007	-0.000002	0.000000	0.000000
47.368050	16.052748	17.557779	1.439326	-1.819567	2.599434	0.000000	-0.232232	0.000000	0.000007	-0.000002	0.000000	0.000000
47.917110	14.264731	19.966632	1.797900	-2.593560	2.451400	0.000000	-0.306208	0.000000	0.000005	-0.000002	0.000000	0.000000
48.363070	12.873354	22.108266	1.333113	-2.188551	2.330136	0.000000	-0.237907	0.000000	0.000005	-0.000002	0.000000	0.000000
48.804030	11.877864	23.822978	0.933003	-1.685240	2.239690	0.000000	-0.172713	0.000000	0.000004	-0.000002	0.000000	0.000000
49.244990	11.215180	25.058173	0.575518	-1.105252	2.177530	0.000000	-0.109487	0.000000	0.000003	-0.000002	0.000000	0.000000
49.685950	10.855027	25.757652	0.244327	-0.474975	2.142950	0.000000	-0.047507	0.000000	0.000002	-0.000002	0.000000	0.000000
50.128160	10.781074	25.889304	-0.049379	0.113376	2.135566	0.000000	0.008695	0.000000	0.000002	-0.000002	0.000000	0.000000
50.425482	10.818657	25.825344	-0.077025	0.101744	2.138152	0.000000	0.008695	0.000000	0.000001	-0.000002	0.000000	0.000000
50.758816	10.880338	25.761861	-0.108019	0.088703	2.141050	0.000000	0.008695	0.000000	0.000001	-0.000002	0.000000	0.000000
51.092149	10.962681	25.707073	-0.139012	0.075662	2.143949	0.000000	0.008695	0.000000	0.000000	-0.000002	0.000000	0.000000
51.426732	11.065888	25.661342	-0.080349	-0.145605	2.146837	0.000000	-0.008721	0.000000	-0.000000	-0.000002	0.000000	0.000000
51.724055	11.121707	25.751443	-0.080117	-0.220588	2.144245	0.000000	-0.013980	0.000000	-0.000001	-0.000002	0.000000	0.000000
52.165015	11.337592	25.659476	-0.411321	0.428355	2.151669	0.000000	0.047683	0.000000	-0.000001	-0.000002	0.000000	0.000000
52.605975	11.852725	25.001635	-0.761318	1.057807	2.186379	0.000000	0.109890	0.000000	-0.000002	-0.000002	0.000000	0.000000
53.046935	12.690640	23.807850	-1.146098	1.639131	2.248768	0.000000	0.173348	0.000000	-0.000003	-0.000002	0.000000	0.000000
53.487895	13.889619	22.132439	-1.583239	2.145875	2.339548	0.000000	0.238780	0.000000	-0.000004	-0.000002	0.000000	0.000000
53.933855	15.524996	20.026581	-2.096940	2.556321	2.461258	0.000000	0.307330	0.000000	-0.000004	-0.000002	0.000000	0.000000
54.482915	17.630525	17.656917	-1.715149	1.785010	2.609822	0.000000	0.233026	0.000000	-0.000005	-0.000002	0.000000	0.000000
55.031975	19.247390	16.059877	-1.212208	1.140841	2.716391	0.000000	0.154589	0.000000	-0.000006	-0.000002	0.000000	0.000000
55.581035	20.261383	15.121706	-0.623642	0.577931	2.779077	0.000000	0.073409	0.000000	-0.000007	-0.000001	0.000000	0.000000
56.130095	20.600883	14.775581	0.008974	0.056186	2.796766	0.000000	-0.009072	0.000000	-0.000008	-0.000001	0.000000	0.000000
56.428668	20.632004	14.725063	-0.059378	0.074406	2.796239	0.000000	-0.001764	0.000000	-0.000008	-0.000001	0.000000	0.000000
56.762001	20.676994	14.683047	-0.075592	0.051643	2.795652	0.000000	-0.001764	0.000000	-0.000008	-0.000001	0.000000	0.000000
57.095334	20.732793	14.656205	-0.091805	0.028881	2.795064	0.000000	-0.001764	0.000000	-0.000009	-0.000001	0.000000	0.000000
57.429918	20.799670	14.644524	-0.108078	0.006033	2.794474	0.000000	-0.001764	0.000000	-0.000009	-0.000001	0.000000	0.000000
57.727240	20.868239	14.646973	-0.177069	0.024002	2.793950	0.000000	0.005536	0.000000	-0.000009	-0.000001	0.000000	0.000000
58.276300	20.706689	14.901837	0.469556	-0.490925	2.774351	0.000000	-0.076823	0.000000	-0.000010	-0.000001	0.000000	0.000000
58.825360	19.849159	15.737921	1.083014	-1.040819	2.709840	0.000000	-0.157820	0.000000	-0.000010	-0.000000	0.000000	0.000000
59.374420	18.356220	17.214778	1.619973	-1.664849	2.601561	0.000000	-0.236017	0.000000	-0.000010	-0.000000	0.000000	0.000000
59.923480	16.333326	19.437600	2.042505	-2.407462	2.451434	0.000000	-0.310028	0.000000	-0.000010	0.000000	0.000000	0.000000
60.369440	14.750055	21.413235	1.520321	-2.003912	2.328463	0.000000	-0.241749	0.000000	-0.000010	-0.000000	0.000000	0.000000
60.810400	13.611355	22.968897	1.071796	-1.510562	2.236309	0.000000	-0.176620	0.000000	-0.000011	-0.000000	0.000000	0.000000
61.251360	12.845212	24.057379	0.672239	-0.948482	2.172404	0.000000	-0.113503	0.000000	-0.000011	-0.000001	0.000000	0.000000
61.692320	12.416623	24.629156	0.303394	-0.343248	2.136019	0.000000	-0.051679	0.000000	-0.000011	-0.000001	0.000000	0.000000
62.134530	12.306060	24.657670	-0.021509	0.217076	2.126747	0.000000	0.004341	0.000000	-0.000011	-0.000001	0.000000	0.000000
62.431853	12.326037	24.532341	-0.045681	0.204450	2.128038	0.000000	0.004341	0.000000	-0.000012	-0.000001	0.000000	0.000000
62.765186	12.365524	24.400759	-0.072781	0.190295	2.129486	0.000000	0.004341	0.000000	-0.000012	-0.000001	0.000000	0.000000
63.098520	12.423078	24.278615	-0.099880	0.176139	2.130933	0.000000	0.004341	0.000000	-0.000013	-0.000001	0.000000	0.000000
63.433103	12.499015	24.165502	-0.127081	0.161931	2.132386	0.000000	0.004341	0.000000	-0.000013	-0.000001	0.000000	0.000000
63.730426	12.581770	24.072965	-0.120395	0.090262	2.133677	0.000000	-0.000892	0.000000	-0.000013	-0.000001	0.000000	0.000000
64.171386	12.848200	23.728253	-0.486101	0.688495	2.146823	0.000000	0.060573	0.000000	-0.000014	-0.000001	0.000000	0.000000
64.612346	13.445690	22.867799	-0.874016	1.255401	2.187200	0.000000	0.122727	0.000000	-0.000015	-0.000002	0.000000	0.000000
65.053306	14.401539	21.530752	-1.301862	1.765187	2.255265	0.000000	0.186279	0.000000	-0.000015	-0.000002	0.000000	0.000000
65.494266	15.759416	19.777949	-1.789187	2.194659	2.351796	0.000000	0.251953	0.000000	-0.000017	-0.000003	0.000000	0.000000
65.940226	17.604519	17.664341	-2.362945	2.525028	2.479463	0.000000	0.320898	0.000000	-0.000018	-0.000003	0.000000	0.000000
66.489286	19.969870	15.299912	-1.919557	1.806714	2.635293	0.000000	0.245887	0.000000	-0.000019	-0.000002	0.000000	0.000000
67.038346	21.770539	13.649406	-1.340581	1.217089	2.748677	0.000000	0.166513	0.000000	-0.000021	-0.000002	0.000000	0.000000
67.587406	22.879336	12.595261	-0.666913	0.714154	2.817604	0.000000	0.084187	0.000000	-0.000021	-0.000001	0.000000	0.000000
68.136466	23.217941	12.062392	0.053862	0.262086	2.840851	0.000000	0.000367	0.000000	-0.000022	-0.000000	0.000000	0.000000
68.435038	23.225849	11.895092	-0.019673	0.266723	2.843178	0.000000	0.007791	0.000000	-0.000022	-0.000001	0.000000	0.000000
68.768372	23.243750	11.727282	-0.034030	0.236706	2.845775	0.000000	0.007791	0.000000	-0.000022	-0.000001	0.000000	0.000000
69.101705	23.271223	11.579484	-0.048388	0.206690	2.848372	0.000000	0.007791	0.000000	-0.000022	-0.000001	0.000000	0.000000
69.436288	23.308424	11.451254	-0.062799	0.176561	2.850979	0.000000	0.007791	0.000000	-0.000022	-0.000001	0.000000	0.000000
69.733611	23.349575	11.354223	-0.136625	0.179460	2.853295	0.000000	0.015247	0.000000	-0.000023	-0.000001	0.000000	0.000000
70.282671	23.098584	11.384575	0.591048	-0.235065	2.838486	0.000000	-0.069112	0.000000	-0.000023	0.000000	0.000000	0.000000
