#ParticleID	Turn	x[m]	xp	y[m]	yp	z[m]	dE[GeV]# s	beta_x	beta_y	alpha_x	alpha_y	D_x	D_y	D_px	D_py	orbit_x	orbit_px	orbit_y	orbit_py
0.300000	11.811580	25.028105	-0.010763	-0.027188	2.618067	0.000000	0.000029	0.000000	-0.000000	0.000001	0.000000	0.000000
0.601250	11.825748	25.048114	-0.036271	-0.039234	2.618076	0.000000	0.000029	0.000000	0.000000	0.000001	0.000000	0.000000
0.898573	11.854802	25.074979	-0.032374	-0.112612	2.618084	0.000000	-0.006392	0.000000	0.000000	0.000001	0.000000	0.000000
1.339533	12.035455	24.896140	-0.378862	0.516637	2.631558	0.000000	0.067565	0.000000	0.000001	0.000001	0.000000	0.000000
1.780493	12.528132	24.170638	-0.742658	1.122381	2.677782	0.000000	0.142291	0.000000	0.000002	0.000001	0.000000	0.000000
2.221453	13.355340	22.931482	-1.140384	1.677057	2.757284	0.000000	0.218638	0.000000	0.000002	0.000002	0.000000	0.000000
2.662413	14.554873	21.235054	-1.590212	2.155428	2.870967	0.000000	0.297475	0.000000	0.000003	0.000002	0.000000	0.000000
3.108373	16.202273	19.133662	-2.116980	2.536862	3.021989	0.000000	0.380189	0.000000	0.000004	0.000002	0.000000	0.000000
3.657433	18.314797	16.773473	-1.707770	1.787110	3.205464	0.000000	0.287151	0.000000	0.000005	0.000002	0.000000	0.000000
4.206493	19.908656	15.162290	-1.177932	1.164650	3.336379	0.000000	0.189020	0.000000	0.000006	0.000001	0.000000	0.000000
4.755553	20.871269	14.185351	-0.564891	0.625146	3.412413	0.000000	0.087536	0.000000	0.000006	0.000001	0.000000	0.000000
5.304613	21.134642	13.773072	0.088052	0.130169	3.432217	0.000000	-0.015501	0.000000	0.000007	0.000001	0.000000	0.000000
5.603185	21.119257	13.680505	0.018692	0.143877	3.430266	0.000000	-0.006534	0.000000	0.000007	0.000001	0.000000	0.000000
5.936519	21.112059	13.592877	0.002903	0.119007	3.428088	0.000000	-0.006534	0.000000	0.000008	0.000001	0.000000	0.000000
6.269852	21.115387	13.521829	-0.012886	0.094137	3.425910	0.000000	-0.006534	0.000000	0.000008	0.000001	0.000000	0.000000
6.604435	21.129313	13.467188	-0.028734	0.069174	3.423723	0.000000	-0.006534	0.000000	0.000008	0.000001	0.000000	0.000000
6.901758	21.150587	13.432649	-0.098076	0.082085	3.421780	0.000000	0.002406	0.000000	0.000008	0.000001	0.000000	0.000000
7.450818	20.897827	13.603365	0.555702	-0.394844	3.394899	0.000000	-0.100178	0.000000	0.000009	0.000001	0.000000	0.000000
7.999878	19.944545	14.310083	1.170228	-0.899897	3.312099	0.000000	-0.200985	0.000000	0.000009	0.000000	0.000000	0.000000
8.548938	18.358076	15.603143	1.702095	-1.469047	3.174848	0.000000	-0.298227	0.000000	0.000009	0.000000	0.000000	0.000000
9.097998	16.250480	17.574646	2.113734	-2.142835	2.985581	0.000000	-0.390179	0.000000	0.000009	-0.000000	0.000000	0.000000
9.543958	14.606187	19.331346	1.586460	-1.779656	2.829884	0.000000	-0.308470	0.000000	0.000009	0.000000	0.000000	0.000000
9.984918	13.410249	20.710800	1.135954	-1.336738	2.711109	0.000000	-0.230757	0.000000	0.000010	0.000000	0.000000	0.000000
10.425878	12.587321	21.671222	0.737346	-0.832999	2.625989	0.000000	-0.155674	0.000000	0.000010	0.000001	0.000000	0.000000
10.866838	12.099806	22.168913	0.372425	-0.291360	2.573556	0.000000	-0.082363	0.000000	0.000010	0.000001	0.000000	0.000000
11.309048	11.925296	22.180706	0.053656	0.209088	2.553193	0.000000	-0.016250	0.000000	0.000010	0.000001	0.000000	0.000000
11.606371	11.900824	22.060533	0.028652	0.195097	2.548361	0.000000	-0.016250	0.000000	0.000011	0.000001	0.000000	0.000000
12.086371	11.892693	21.884081	-0.011714	0.172510	2.540561	0.000000	-0.016250	0.000000	0.000011	0.000001	0.000000	0.000000
12.566371	11.923315	21.729313	-0.052080	0.149924	2.532760	0.000000	-0.016250	0.000000	0.000012	0.000001	0.000000	0.000000
13.046371	11.992688	21.596227	-0.092447	0.127337	2.524959	0.000000	-0.016250	0.000000	0.000012	0.000001	0.000000	0.000000
13.526371	12.100813	21.484825	-0.132813	0.104751	2.517158	0.000000	-0.016250	0.000000	0.000013	0.000001	0.000000	0.000000
14.007621	12.248123	21.394900	-0.173285	0.082106	2.509337	0.000000	-0.016250	0.000000	0.000013	0.000001	0.000000	0.000000
14.304943	12.358600	21.350236	-0.167986	0.015765	2.504505	0.000000	-0.022391	0.000000	0.000014	0.000001	0.000000	0.000000
14.745903	12.665272	21.102658	-0.530117	0.543550	2.510264	0.000000	0.048538	0.000000	0.000014	0.000001	0.000000	0.000000
15.186863	13.300748	20.398786	-0.916469	1.046604	2.547392	0.000000	0.120020	0.000000	0.000015	0.000002	0.000000	0.000000
15.627823	14.294062	19.270643	-1.344691	1.502038	2.616311	0.000000	0.192869	0.000000	0.000016	0.000002	0.000000	0.000000
16.068783	15.690593	17.769561	-1.834348	1.889130	2.717807	0.000000	0.267914	0.000000	0.000017	0.000003	0.000000	0.000000
16.514743	17.577804	15.942335	-2.412569	2.191013	2.854730	0.000000	0.346473	0.000000	0.000018	0.000003	0.000000	0.000000
17.063803	20.001690	13.902084	-1.975905	1.546818	3.021230	0.000000	0.259130	0.000000	0.000020	0.000002	0.000000	0.000000
17.612863	21.866122	12.504948	-1.399672	1.012799	3.138439	0.000000	0.167190	0.000000	0.000021	0.000002	0.000000	0.000000
18.161923	23.039407	11.651411	-0.724574	0.550919	3.204278	0.000000	0.072284	0.000000	0.000022	0.000001	0.000000	0.000000
18.710983	23.438670	11.280677	0.001705	0.128281	3.217579	0.000000	-0.023903	0.000000	0.000022	0.000000	0.000000	0.000000
19.009556	23.478031	11.194577	-0.072308	0.130623	3.212952	0.000000	-0.015498	0.000000	0.000022	0.000000	0.000000	0.000000
19.342889	23.530994	11.117590	-0.086580	0.100339	3.207786	0.000000	-0.015498	0.000000	0.000022	0.000000	0.000000	0.000000
19.676223	23.593472	11.060792	-0.100852	0.070054	3.202619	0.000000	-0.015498	0.000000	0.000022	0.000000	0.000000	0.000000
20.010806	23.666045	11.023948	-0.232432	0.094276	3.197454	0.000000	0.000344	0.000000	0.000023	0.000001	0.000000	0.000000
20.308129	23.808197	10.975978	-0.307869	0.095738	3.197556	0.000000	0.008697	0.000000	0.000023	0.000001	0.000000	0.000000
20.857189	23.735639	11.092932	0.439237	-0.310003	3.176108	0.000000	-0.086710	0.000000	0.000023	-0.000000	0.000000	0.000000
21.406249	22.854919	11.664876	1.155316	-0.737824	3.102621	0.000000	-0.180578	0.000000	0.000023	-0.000001	0.000000	0.000000
21.955309	21.228249	12.732548	1.789790	-1.218200	2.978400	0.000000	-0.271244	0.000000	0.000022	-0.000002	0.000000	0.000000
22.504369	18.970527	14.371998	2.297843	-1.785345	2.805648	0.000000	-0.357099	0.000000	0.000021	-0.000002	0.000000	0.000000
22.950329	17.191201	15.843955	1.706118	-1.501378	2.663693	0.000000	-0.279878	0.000000	0.000020	-0.000002	0.000000	0.000000
23.391289	15.915863	17.017552	1.197037	-1.149953	2.556603	0.000000	-0.206300	0.000000	0.000019	-0.000001	0.000000	0.000000
23.832249	15.063772	17.856876	0.742646	-0.746206	2.481409	0.000000	-0.135071	0.000000	0.000019	-0.000001	0.000000	0.000000
24.273209	14.595999	18.323739	0.322185	-0.308507	2.437256	0.000000	-0.065381	0.000000	0.000019	-0.000000	0.000000	0.000000
24.715418	14.491292	18.396653	-0.048114	0.098053	2.423637	0.000000	-0.002377	0.000000	0.000019	0.000000	0.000000	0.000000
25.012741	14.526016	18.343198	-0.068678	0.081736	2.422930	0.000000	-0.002377	0.000000	0.000019	0.000000	0.000000	0.000000
25.346075	14.579487	18.294805	-0.091734	0.063443	2.422137	0.000000	-0.002377	0.000000	0.000019	0.000000	0.000000	0.000000
25.679408	14.648328	18.258608	-0.114789	0.045149	2.421345	0.000000	-0.002377	0.000000	0.000019	0.000000	0.000000	0.000000
26.013991	14.732586	18.234909	-0.018411	-0.121143	2.420525	0.000000	-0.022014	0.000000	0.000019	0.000000	0.000000	0.000000
26.311314	14.749536	18.311865	-0.002436	-0.182586	2.413979	0.000000	-0.027933	0.000000	0.000019	-0.000000	0.000000	0.000000
26.752274	14.933400	18.274304	-0.416109	0.267441	2.416775	0.000000	0.040624	0.000000	0.000019	0.000000	0.000000	0.000000
27.193234	15.489063	17.843727	-0.848792	0.705299	2.449874	0.000000	0.109644	0.000000	0.000019	0.000001	0.000000	0.000000
27.634194	16.441912	17.039722	-1.320255	1.111067	2.513655	0.000000	0.179913	0.000000	0.000020	0.000001	0.000000	0.000000
28.075154	17.835480	15.898873	-1.852037	1.466282	2.608842	0.000000	0.252231	0.000000	0.000021	0.000002	0.000000	0.000000
28.521114	19.757644	14.455900	-2.473401	1.755694	2.738125	0.000000	0.327865	0.000000	0.000022	0.000003	0.000000	0.000000
29.070174	22.200727	12.848175	-1.949831	1.189730	2.895472	0.000000	0.244447	0.000000	0.000023	0.000002	0.000000	0.000000
29.619234	23.989373	11.812044	-1.288534	0.708509	3.005760	0.000000	0.156694	0.000000	0.000024	0.000001	0.000000	0.000000
30.168294	24.997239	11.273705	-0.536221	0.277752	3.067030	0.000000	0.066162	0.000000	0.000024	0.000000	0.000000	0.000000
30.717354	25.153136	11.194814	0.253968	-0.133220	3.078197	0.000000	-0.025544	0.000000	0.000024	-0.000000	0.000000	0.000000
31.015927	25.044387	11.264952	0.175969	-0.130935	3.072971	0.000000	-0.017503	0.000000	0.000024	-0.000000	0.000000	0.000000
31.349260	24.931648	11.362274	0.162248	-0.161033	3.067137	0.000000	-0.017503	0.000000	0.000024	-0.000000	0.000000	0.000000
31.682593	24.828057	11.479662	0.148526	-0.191130	3.061303	0.000000	-0.017503	0.000000	0.000023	-0.000000	0.000000	0.000000
32.017177	24.733277	11.617668	0.134752	-0.221341	3.055447	0.000000	-0.017503	0.000000	0.000023	-0.000000	0.000000	0.000000
32.314499	24.656786	11.757269	0.058102	-0.217473	3.050243	0.000000	-0.009535	0.000000	0.000023	-0.000000	0.000000	0.000000
32.863559	24.170523	12.235280	0.822283	-0.658264	3.020121	0.000000	-0.100028	0.000000	0.000023	-0.000001	0.000000	0.000000
33.412619	22.872181	13.220085	1.528382	-1.145942	2.940727	0.000000	-0.188747	0.000000	0.000022	-0.000002	0.000000	0.000000
33.961679	20.853468	14.781829	2.126523	-1.715243	2.813471	0.000000	-0.274118	0.000000	0.000021	-0.000003	0.000000	0.000000
34.510739	18.256975	17.031752	2.574458	-2.406717	2.640608	0.000000	-0.354627	0.000000	0.000019	-0.000003	0.000000	0.000000
34.956699	16.238078	19.044238	1.968843	-2.087144	2.498804	0.000000	-0.281685	0.000000	0.000018	-0.000003	0.000000	0.000000
35.397659	14.732602	20.708801	1.458194	-1.673352	2.389977	0.000000	-0.212380	0.000000	0.000017	-0.000002	0.000000	0.000000
35.838619	13.646509	21.973337	1.014167	-1.183424	2.311149	0.000000	-0.145494	0.000000	0.000016	-0.000002	0.000000	0.000000
36.279579	12.930179	22.780312	0.616473	-0.639651	2.261422	0.000000	-0.080265	0.000000	0.000015	-0.000001	0.000000	0.000000
36.721789	12.550191	23.093316	0.277612	-0.123452	2.240202	0.000000	-0.021442	0.000000	0.000015	-0.000001	0.000000	0.000000
37.019112	12.392697	23.170613	0.252095	-0.136524	2.233827	0.000000	-0.021442	0.000000	0.000014	-0.000001	0.000000	0.000000
37.352445	12.234169	23.266513	0.223488	-0.151178	2.226680	0.000000	-0.021442	0.000000	0.000014	-0.000001	0.000000	0.000000
37.685779	12.094712	23.372183	0.194881	-0.165832	2.219533	0.000000	-0.021442	0.000000	0.000014	-0.000001	0.000000	0.000000
38.020362	11.973911	23.488073	0.166167	-0.180541	2.212359	0.000000	-0.021442	0.000000	0.000013	-0.000001	0.000000	0.000000
38.317684	11.882687	23.599318	0.169787	-0.251478	2.205984	0.000000	-0.026852	0.000000	0.000013	-0.000001	0.000000	0.000000
38.758644	11.884432	23.559705	-0.173758	0.340968	2.208073	0.000000	0.036335	0.000000	0.000013	-0.000001	0.000000	0.000000
39.199604	12.191498	23.002474	-0.525242	0.917900	2.238090	0.000000	0.099934	0.000000	0.000012	-0.000000	0.000000	0.000000
39.640564	12.817914	21.952978	-0.900722	1.453068	2.296375	0.000000	0.164673	0.000000	0.000012	-0.000000	0.000000	0.000000
40.081524	13.792300	20.458968	-1.317354	1.922123	2.383593	0.000000	0.231286	0.000000	0.000012	0.000000	0.000000	0.000000
40.527484	15.176750	18.565847	-1.797999	2.305007	2.502209	0.000000	0.300939	0.000000	0.000012	0.000000	0.000000	0.000000
41.076544	16.943432	16.438432	-1.400601	1.592512	2.646910	0.000000	0.225371	0.000000	0.000012	0.000000	0.000000	0.000000
41.625604	18.216482	15.026917	-0.904271	0.993447	2.748959	0.000000	0.145805	0.000000	0.000012	-0.000000	0.000000	0.000000
42.174664	18.905977	14.230762	-0.344068	0.465144	2.806546	0.000000	0.063653	0.000000	0.000012	-0.000001	0.000000	0.000000
42.723724	18.963215	13.993259	0.240438	-0.030028	2.818651	0.000000	-0.019628	0.000000	0.000012	-0.000001	0.000000	0.000000
43.022297	18.854095	13.995731	0.174577	-0.014807	2.814989	0.000000	-0.012265	0.000000	0.000011	-0.000001	0.000000	0.000000
43.502297	18.699094	14.026412	0.148342	-0.049111	2.809103	0.000000	-0.012265	0.000000	0.000011	-0.000001	0.000000	0.000000
43.982297	18.569278	14.090024	0.122107	-0.083415	2.803216	0.000000	-0.012265	0.000000	0.000010	-0.000001	0.000000	0.000000
44.462297	18.464648	14.186568	0.095873	-0.117719	2.797330	0.000000	-0.012265	0.000000	0.000010	-0.000001	0.000000	0.000000
44.942297	18.385202	14.316044	0.069638	-0.152022	2.791443	0.000000	-0.012265	0.000000	0.000009	-0.000001	0.000000	0.000000
45.423547	18.331061	14.478737	-0.047487	-0.114679	2.785559	0.000000	0.001537	0.000000	0.000009	-0.000001	0.000000	0.000000
45.720870	18.364132	14.553116	-0.111722	-0.097462	2.786016	0.000000	0.008816	0.000000	0.000008	-0.000001	0.000000	0.000000
46.269930	18.177601	14.941590	0.449437	-0.614238	2.768283	0.000000	-0.073317	0.000000	0.000008	-0.000001	0.000000	0.000000
46.818990	17.388716	15.918096	0.978849	-1.174766	2.705745	0.000000	-0.154149	0.000000	0.000007	-0.000002	0.000000	0.000000
47.368050	16.053199	17.552191	1.439121	-1.818969	2.599512	0.000000	-0.232247	0.000000	0.000006	-0.000002	0.000000	0.000000
47.917110	14.265384	19.960266	1.797740	-2.592733	2.451468	0.000000	-0.306226	0.000000	0.000005	-0.000002	0.000000	0.000000
48.363070	12.874148	22.101223	1.332957	-2.187867	2.330198	0.000000	-0.237923	0.000000	0.000004	-0.000002	0.000000	0.000000
48.804030	11.878797	23.815407	0.932842	-1.684730	2.239744	0.000000	-0.172728	0.000000	0.000004	-0.000002	0.000000	0.000000
49.244990	11.216260	25.050238	0.575346	-1.104939	2.177579	0.000000	-0.109500	0.000000	0.000003	-0.000002	0.000000	0.000000
49.685950	10.856266	25.749533	0.244136	-0.474873	2.142993	0.000000	-0.047519	0.000000	0.000002	-0.000002	0.000000	0.000000
50.128160	10.782493	25.881191	-0.049595	0.113282	2.135604	0.000000	0.008684	0.000000	0.000002	-0.000001	0.000000	0.000000
50.425482	10.820203	25.817288	-0.077237	0.101646	2.138186	0.000000	0.008684	0.000000	0.000001	-0.000001	0.000000	0.000000
50.758816	10.882025	25.753872	-0.108227	0.088602	2.141081	0.000000	0.008684	0.000000	0.000001	-0.000001	0.000000	0.000000
51.092149	10.964506	25.699152	-0.139218	0.075557	2.143976	0.000000	0.008684	0.000000	0.000000	-0.000001	0.000000	0.000000
51.426732	11.067849	25.653493	-0.080535	-0.145650	2.146861	0.000000	-0.008733	0.000000	-0.000000	-0.000001	0.000000	0.000000
51.724055	11.123778	25.743622	-0.080293	-0.220618	2.144265	0.000000	-0.013991	0.000000	-0.000001	-0.000001	0.000000	0.000000
52.165015	11.339841	25.651773	-0.411550	0.428119	2.151684	0.000000	0.047673	0.000000	-0.000002	-0.000002	0.000000	0.000000
52.605975	11.855202	24.994227	-0.761609	1.057376	2.186389	0.000000	0.109879	0.000000	-0.000002	-0.000002	0.000000	0.000000
53.046935	12.693405	23.800902	-1.146463	1.638524	2.248774	0.000000	0.173337	0.000000	-0.000003	-0.000002	0.000000	0.000000
53.487895	13.892746	22.126093	-1.583697	2.145120	2.339550	0.000000	0.238770	0.000000	-0.000004	-0.000002	0.000000	0.000000
53.933855	15.528580	20.020963	-2.097512	2.555453	2.461254	0.000000	0.307320	0.000000	-0.000004	-0.000002	0.000000	0.000000
54.482915	17.634688	17.652129	-1.715626	1.784358	2.609813	0.000000	0.233016	0.000000	-0.000005	-0.000002	0.000000	0.000000
55.031975	19.252009	16.055707	-1.212556	1.140359	2.716377	0.000000	0.154579	0.000000	-0.000006	-0.000001	0.000000	0.000000
55.581035	20.266304	15.117987	-0.623838	0.577586	2.779057	0.000000	0.073400	0.000000	-0.000007	-0.000001	0.000000	0.000000
56.130095	20.605927	14.772178	0.008945	0.055952	2.796741	0.000000	-0.009080	0.000000	-0.000008	-0.000001	0.000000	0.000000
56.428668	20.637073	14.721806	-0.059417	0.074159	2.796212	0.000000	-0.001773	0.000000	-0.000008	-0.000001	0.000000	0.000000
56.762001	20.682087	14.679955	-0.075626	0.051393	2.795622	0.000000	-0.001773	0.000000	-0.000008	-0.000001	0.000000	0.000000
57.095334	20.737908	14.653282	-0.091835	0.028626	2.795031	0.000000	-0.001773	0.000000	-0.000009	-0.000001	0.000000	0.000000
57.429918	20.804805	14.641773	-0.108105	0.005774	2.794439	0.000000	-0.001773	0.000000	-0.000009	-0.000001	0.000000	0.000000
57.727240	20.873388	14.644377	-0.177106	0.023733	2.793912	0.000000	0.005528	0.000000	-0.000009	-0.000001	0.000000	0.000000
58.276300	20.711784	14.899498	0.469691	-0.491125	2.774309	0.000000	-0.076830	0.000000	-0.000010	-0.000001	0.000000	0.000000
58.825360	19.854015	15.735771	1.083312	-1.040965	2.709794	0.000000	-0.157826	0.000000	-0.000010	-0.000000	0.000000	0.000000
59.374420	18.360668	17.212763	1.620412	-1.664951	2.601512	0.000000	-0.236021	0.000000	-0.000010	-0.000000	0.000000	0.000000
59.923480	16.337227	19.435676	2.043055	-2.407527	2.451383	0.000000	-0.310031	0.000000	-0.000010	0.000000	0.000000	0.000000
60.369440	14.753519	21.411401	1.520754	-2.004048	2.328411	0.000000	-0.241753	0.000000	-0.000010	-0.000000	0.000000	0.000000
60.810400	13.614481	22.967211	1.072133	-1.510761	2.236255	0.000000	-0.176626	0.000000	-0.000010	-0.000000	0.000000	0.000000
61.251360	12.848078	24.055894	0.672495	-0.948737	2.172347	0.000000	-0.113510	0.000000	-0.000010	-0.000001	0.000000	0.000000
61.692320	12.419295	24.627915	0.303581	-0.343545	2.135959	0.000000	-0.051687	0.000000	-0.000011	-0.000001	0.000000	0.000000
62.134530	12.308594	24.656707	-0.021378	0.216751	2.126683	0.000000	0.004331	0.000000	-0.000011	-0.000001	0.000000	0.000000
62.431853	12.328492	24.531570	-0.045545	0.204126	2.127971	0.000000	0.004331	0.000000	-0.000011	-0.000001	0.000000	0.000000
62.765186	12.367886	24.400204	-0.072638	0.189972	2.129415	0.000000	0.004331	0.000000	-0.000012	-0.000001	0.000000	0.000000
63.098520	12.425343	24.278274	-0.099732	0.175818	2.130859	0.000000	0.004331	0.000000	-0.000012	-0.000001	0.000000	0.000000
63.433103	12.501179	24.165376	-0.126927	0.161611	2.132309	0.000000	0.004331	0.000000	-0.000013	-0.000001	0.000000	0.000000
63.730426	12.583841	24.073028	-0.120231	0.089944	2.133597	0.000000	-0.000901	0.000000	-0.000013	-0.000001	0.000000	0.000000
64.171386	12.850146	23.728593	-0.485980	0.688186	2.146739	0.000000	0.060561	0.000000	-0.000013	-0.000001	0.000000	0.000000
64.612346	13.447546	22.868401	-0.873932	1.255116	2.187109	0.000000	0.122713	0.000000	-0.000014	-0.000002	0.000000	0.000000
65.053306	14.403336	21.531591	-1.301812	1.764940	2.255168	0.000000	0.186263	0.000000	-0.000015	-0.000002	0.000000	0.000000
65.494266	15.761183	19.778985	-1.789168	2.194460	2.351691	0.000000	0.251934	0.000000	-0.000016	-0.000003	0.000000	0.000000
65.940226	17.606282	17.665529	-2.362957	2.524886	2.479348	0.000000	0.320876	0.000000	-0.000017	-0.000003	0.000000	0.000000
66.489286	19.971604	15.301258	-1.919493	1.806567	2.635168	0.000000	0.245869	0.000000	-0.000019	-0.000002	0.000000	0.000000
67.038346	21.772164	13.650921	-1.340446	1.216925	2.748543	0.000000	0.166500	0.000000	-0.000020	-0.000002	0.000000	0.000000
67.587406	22.880778	12.596970	-0.666716	0.713962	2.817464	0.000000	0.084178	0.000000	-0.000021	-0.000001	0.000000	0.000000
68.136466	23.219140	12.064332	0.054106	0.261854	2.840707	0.000000	0.000362	0.000000	-0.000021	-0.000000	0.000000	0.000000
68.435038	23.226903	11.897166	-0.019431	0.266502	2.843032	0.000000	0.007786	0.000000	-0.000021	-0.000000	0.000000	0.000000
68.768372	23.244643	11.729501	-0.033788	0.236495	2.845627	0.000000	0.007786	0.000000	-0.000021	-0.000000	0.000000	0.000000
69.101705	23.271953	11.581840	-0.048144	0.206487	2.848223	0.000000	0.007786	0.000000	-0.000021	-0.000000	0.000000	0.000000
69.436288	23.308991	11.453744	-0.062555	0.176367	2.850828	0.000000	0.007786	0.000000	-0.000022	-0.000000	0.000000	0.000000
69.733611	23.349996	11.356826	-0.136381	0.179279	2.853143	0.000000	0.015242	0.000000	-0.000022	-0.000001	0.000000	0.000000
70.282671	23.098732	11.387417	0.591299	-0.235322	2.838332	0.000000	-0.069113	0.000000	-0.000022	0.000000	0.000000	0.000000
